time [s];zmax [m];posx [m];posy [m];posz [m]
0.000000;0.414;3;0.5;0.053
0.001006;0.413999;3;0.5;0.053
0.002011;0.413994;3;0.5;0.053
0.003016;0.413979;3;0.5;0.053
0.004002;0.413955;3;0.5;0.053
0.005008;0.41392;3;0.5;0.053
0.006013;0.413876;3;0.5;0.053
0.007018;0.413821;3;0.5;0.053
0.008004;0.413758;3;0.5;0.053
0.009008;0.413684;3;0.5;0.053
0.010013;0.4136;3;0.5;0.053
0.011017;0.413501;3;0.5;0.053
0.012001;0.413404;3;0.5;0.053
0.013004;0.413291;3;0.5;0.053
0.014008;0.413169;3;0.5;0.053
0.015011;0.413039;3;0.5;0.053
0.016013;0.412899;3;0.5;0.053
0.017016;0.412752;3;0.5;0.053
0.018019;0.412595;3;0.5;0.053
0.019001;0.412433;3;0.5;0.053
0.020003;0.412259;3;0.5;0.053
0.021003;0.412077;3;0.5;0.053
0.022002;0.411886;3;0.5;0.053
0.023001;0.411687;3;0.5;0.053
0.024000;0.411479;3;0.5;0.053
0.025018;0.411258;3;0.5;0.053
0.026015;0.411033;3;0.5;0.053
0.027012;0.4108;3;0.5;0.053
0.028010;0.410558;3;0.5;0.053
0.029006;0.410307;3;0.5;0.053
0.030002;0.410049;3;0.5;0.053
0.031017;0.409778;3;0.5;0.053
0.032013;0.409504;3;0.5;0.053
0.033009;0.40922;3;0.5;0.053
0.034004;0.408926;3;0.5;0.053
0.035017;0.40862;3;0.5;0.053
0.036012;0.40831;3;0.5;0.053
0.037007;0.407993;3;0.5;0.053
0.038002;0.407666;3;0.5;0.053
0.039016;0.407325;3;0.5;0.053
0.040010;0.406981;3;0.5;0.053
0.041004;0.406629;3;0.5;0.053
0.042017;0.406262;3;0.5;0.053
0.043010;0.405894;3;0.5;0.053
0.044002;0.405517;3;0.5;0.053
0.045014;0.405124;3;0.5;0.053
0.046008;0.40473;3;0.5;0.053
0.047001;0.404328;3;0.5;0.053
0.048012;0.40391;3;0.5;0.053
0.049005;0.403491;3;0.5;0.053
0.050017;0.403055;3;0.5;0.053
0.051009;0.402619;3;0.5;0.053
0.052001;0.402175;3;0.5;0.053
0.053011;0.401713;3;0.5;0.053
0.054001;0.401254;3;0.5;0.053
0.055010;0.400778;3;0.5;0.053
0.056001;0.400301;3;0.5;0.053
0.057012;0.399807;3;0.5;0.053
0.058003;0.399314;3;0.5;0.053
0.059012;0.398804;3;0.5;0.053
0.060003;0.398295;3;0.5;0.053
0.061012;0.397769;3;0.5;0.053
0.062003;0.397245;3;0.5;0.053
0.063011;0.396703;3;0.5;0.053
0.064002;0.396162;3;0.5;0.053
0.065010;0.395604;3;0.5;0.053
0.066019;0.395038;3;0.5;0.053
0.067008;0.394474;3;0.5;0.053
0.068017;0.393892;3;0.5;0.053
0.069006;0.393314;3;0.5;0.053
0.070015;0.392717;3;0.5;0.053
0.071005;0.392122;3;0.5;0.053
0.072013;0.391509;3;0.5;0.053
0.073001;0.390901;3;0.5;0.053
0.074008;0.390274;3;0.5;0.053
0.075015;0.389637;3;0.5;0.053
0.076003;0.389005;3;0.5;0.053
0.077010;0.388354;3;0.5;0.053
0.078017;0.387696;3;0.5;0.053
0.079005;0.387043;3;0.5;0.053
0.080012;0.386372;3;0.5;0.053
0.081017;0.385693;3;0.5;0.053
0.082005;0.385018;3;0.5;0.053
0.083011;0.384323;3;0.5;0.053
0.084015;0.383623;3;0.5;0.053
0.085002;0.382927;3;0.5;0.053
0.086005;0.382213;3;0.5;0.053
0.087009;0.38149;3;0.5;0.053
0.088014;0.38076;3;0.5;0.053
0.089018;0.380022;3;0.5;0.053
0.090010;0.379288;3;0.5;0.053
0.091005;0.378544;3;0.5;0.053
0.092003;0.377792;3;0.5;0.053
0.093018;0.37702;3;0.5;0.053
0.094014;0.376256;3;0.5;0.053
0.095009;0.375488;3;0.5;0.053
0.096011;0.374706;3;0.5;0.053
0.097016;0.373916;3;0.5;0.053
0.098002;0.373542;3;0.5;0.053
0.099017;0.37274;3;0.5;0.053
0.100001;0.371958;3;0.5;0.053
0.101005;0.371153;3;0.5;0.053
0.102007;0.370344;3;0.5;0.053
0.103004;0.369533;3;0.5;0.053
0.104007;0.368711;3;0.5;0.053
0.105009;0.367884;3;0.5;0.053
0.106010;0.367053;3;0.5;0.053
0.107010;0.366217;3;0.5;0.053
0.108007;0.365378;3;0.5;0.053
0.109006;0.364531;3;0.5;0.053
0.110009;0.363676;3;0.5;0.053
0.111006;0.362821;3;0.5;0.053
0.112002;0.361962;3;0.5;0.053
0.113001;0.361095;3;0.5;0.053
0.114017;0.360208;3;0.5;0.053
0.115012;0.359335;3;0.5;0.053
0.116013;0.358452;3;0.5;0.053
0.117017;0.357562;3;0.5;0.053
0.118014;0.356672;3;0.5;0.053
0.119004;0.355786;3;0.5;0.053
0.120004;0.354886;3;0.5;0.053
0.121015;0.35397;3;0.5;0.053
0.122012;0.353064;3;0.5;0.053
0.123007;0.352157;3;0.5;0.053
0.124002;0.351243;3;0.5;0.053
0.125002;0.350322;3;0.5;0.053
0.126017;0.349384;3;0.5;0.053
0.127013;0.348461;3;0.5;0.053
0.128011;0.347531;3;0.5;0.053
0.129009;0.346597;3;0.5;0.053
0.130006;0.345663;3;0.5;0.053
0.131015;0.344714;3;0.5;0.053
0.132012;0.343771;3;0.5;0.053
0.133017;0.342819;3;0.5;0.053
0.134011;0.341874;3;0.5;0.053
0.135017;0.340915;3;0.5;0.053
0.136007;0.339968;3;0.5;0.053
0.137001;0.339015;3;0.5;0.053
0.138014;0.338041;3;0.5;0.053
0.139010;0.33708;3;0.5;0.053
0.140008;0.336115;3;0.5;0.053
0.141007;0.335147;3;0.5;0.053
0.142005;0.334177;3;0.5;0.053
0.143018;0.334158;3;0.5;0.053
0.144010;0.333206;3;0.5;0.053
0.145006;0.332249;3;0.5;0.053
0.146004;0.331288;3;0.5;0.053
0.147018;0.33031;3;0.5;0.053
0.148017;0.329345;3;0.5;0.053
0.149016;0.328379;3;0.5;0.053
0.150015;0.32741;3;0.5;0.053
0.151013;0.326443;3;0.5;0.053
0.152008;0.325477;3;0.5;0.053
0.153008;0.324506;3;0.5;0.053
0.154007;0.323535;3;0.5;0.053
0.155004;0.322568;3;0.5;0.053
0.156002;0.321598;3;0.5;0.053
0.157002;0.320628;3;0.5;0.053
0.158011;0.319648;3;0.5;0.053
0.159002;0.318683;3;0.5;0.053
0.160003;0.317708;3;0.5;0.053
0.161017;0.316717;3;0.5;0.053
0.162017;0.315738;3;0.5;0.053
0.163009;0.316023;3;0.5;0.053
0.164008;0.315058;3;0.5;0.053
0.165008;0.314093;3;0.5;0.053
0.166005;0.313134;3;0.5;0.053
0.167002;0.312177;3;0.5;0.053
0.168018;0.311202;3;0.5;0.053
0.169009;0.310253;3;0.5;0.053
0.170005;0.309299;3;0.5;0.053
0.171004;0.308344;3;0.5;0.053
0.172018;0.307372;3;0.5;0.053
0.173016;0.306415;3;0.5;0.053
0.174014;0.305458;3;0.5;0.053
0.175013;0.304501;3;0.5;0.053
0.176008;0.303546;3;0.5;0.053
0.177008;0.304035;3;0.5;0.053
0.178017;0.303083;3;0.5;0.053
0.179010;0.302144;3;0.5;0.053
0.180010;0.301195;3;0.5;0.053
0.181011;0.300241;3;0.5;0.053
0.182014;0.299288;3;0.5;0.053
0.183009;0.298346;3;0.5;0.053
0.184010;0.297401;3;0.5;0.053
0.185004;0.296465;3;0.5;0.053
0.186002;0.295529;3;0.5;0.053
0.187002;0.294592;3;0.5;0.053
0.188001;0.295239;3;0.5;0.053
0.189017;0.294307;3;0.5;0.053
0.190009;0.293398;3;0.5;0.053
0.191002;0.29249;3;0.5;0.053
0.192003;0.291575;3;0.5;0.053
0.193003;0.290661;3;0.5;0.053
0.194017;0.289736;3;0.5;0.053
0.195017;0.288825;3;0.5;0.053
0.196016;0.287916;3;0.5;0.053
0.197017;0.288678;3;0.5;0.053
0.198001;0.287798;3;0.5;0.053
0.199019;0.286885;3;0.5;0.053
0.200002;0.286003;3;0.5;0.053
0.201002;0.285106;3;0.5;0.053
0.202001;0.284209;3;0.5;0.053
0.203002;0.283311;3;0.5;0.053
0.204001;0.282414;3;0.5;0.053
0.205000;0.281515;3;0.5;0.053
0.206018;0.282361;3;0.5;0.053
0.207017;0.281478;3;0.5;0.053
0.208016;0.280597;3;0.5;0.053
0.209015;0.279718;3;0.5;0.053
0.210014;0.278839;3;0.5;0.053
0.211013;0.277962;3;0.5;0.053
0.212013;0.277088;3;0.5;0.053
0.213012;0.276214;3;0.5;0.053
0.214010;0.27717;3;0.5;0.053
0.215009;0.276316;3;0.5;0.053
0.216009;0.27546;3;0.5;0.053
0.217007;0.274609;3;0.5;0.053
0.218005;0.273758;3;0.5;0.053
0.219002;0.272909;3;0.5;0.053
0.220018;0.272045;3;0.5;0.053
0.221017;0.273068;3;0.5;0.053
0.222013;0.272235;3;0.5;0.053
0.223013;0.2714;3;0.5;0.053
0.224014;0.270564;3;0.5;0.053
0.225012;0.26973;3;0.5;0.053
0.226012;0.268895;3;0.5;0.053
0.227009;0.268062;3;0.5;0.053
0.228005;0.269143;3;0.5;0.053
0.229003;0.268322;3;0.5;0.053
0.230002;0.267499;3;0.5;0.053
0.231019;0.266662;3;0.5;0.053
0.232017;0.265841;3;0.5;0.053
0.233015;0.265019;3;0.5;0.053
0.234013;0.266134;3;0.5;0.053
0.235010;0.265326;3;0.5;0.053
0.236008;0.264519;3;0.5;0.053
0.237005;0.263713;3;0.5;0.053
0.238001;0.262908;3;0.5;0.053
0.239013;0.262092;3;0.5;0.053
0.240010;0.263245;3;0.5;0.053
0.241007;0.262455;3;0.5;0.053
0.242005;0.261666;3;0.5;0.053
0.243002;0.26088;3;0.5;0.053
0.244001;0.260094;3;0.5;0.053
0.245018;0.259295;3;0.5;0.053
0.246017;0.260487;3;0.5;0.053
0.247015;0.259715;3;0.5;0.053
0.248014;0.258944;3;0.5;0.053
0.249014;0.258174;3;0.5;0.053
0.250013;0.257403;3;0.5;0.053
0.251011;0.256633;3;0.5;0.053
0.252011;0.257854;3;0.5;0.053
0.253011;0.257094;3;0.5;0.053
0.254004;0.256339;3;0.5;0.053
0.255002;0.255581;3;0.5;0.053
0.256002;0.25482;3;0.5;0.053
0.257002;0.254058;3;0.5;0.053
0.258002;0.255301;3;0.5;0.053
0.259002;0.25455;3;0.5;0.053
0.260001;0.2538;3;0.5;0.053
0.261019;0.253037;3;0.5;0.053
0.262017;0.25229;3;0.5;0.053
0.263015;0.251543;3;0.5;0.053
0.264014;0.25281;3;0.5;0.053
0.265013;0.252073;3;0.5;0.053
0.266013;0.251335;3;0.5;0.053
0.267013;0.250599;3;0.5;0.053
0.268013;0.249864;3;0.5;0.053
0.269012;0.251142;3;0.5;0.053
0.270011;0.250418;3;0.5;0.053
0.271011;0.249694;3;0.5;0.053
0.272010;0.24897;3;0.5;0.053
0.273010;0.248248;3;0.5;0.053
0.274008;0.249535;3;0.5;0.053
0.275016;0.248818;3;0.5;0.053
0.276015;0.248108;3;0.5;0.053
0.277013;0.247399;3;0.5;0.053
0.278011;0.246693;3;0.5;0.053
0.279011;0.245985;3;0.5;0.053
0.280007;0.247296;3;0.5;0.053
0.281006;0.246599;3;0.5;0.053
0.282005;0.245903;3;0.5;0.053
0.283005;0.245208;3;0.5;0.053
0.284004;0.244512;3;0.5;0.053
0.285003;0.245826;3;0.5;0.053
0.286001;0.245139;3;0.5;0.053
0.287019;0.244439;3;0.5;0.053
0.288018;0.243753;3;0.5;0.053
0.289017;0.243065;3;0.5;0.053
0.290016;0.244381;3;0.5;0.053
0.291015;0.243702;3;0.5;0.053
0.292014;0.243023;3;0.5;0.053
0.293013;0.242345;3;0.5;0.053
0.294001;0.241673;3;0.5;0.053
0.295001;0.242991;3;0.5;0.053
0.296018;0.242311;3;0.5;0.053
0.297014;0.241644;3;0.5;0.053
0.298015;0.240973;3;0.5;0.053
0.299015;0.240305;3;0.5;0.053
0.300015;0.241626;3;0.5;0.053
0.301012;0.240969;3;0.5;0.053
0.302010;0.240311;3;0.5;0.053
0.303009;0.239653;3;0.5;0.053
0.304009;0.238997;3;0.5;0.053
0.305009;0.240322;3;0.5;0.053
0.306008;0.239674;3;0.5;0.053
0.307008;0.239026;3;0.5;0.053
0.308008;0.238378;3;0.5;0.053
0.309007;0.237733;3;0.5;0.053
0.310006;0.239058;3;0.5;0.053
0.311005;0.238422;3;0.5;0.053
0.312004;0.237785;3;0.5;0.053
0.313002;0.237149;3;0.5;0.053
0.314001;0.236513;3;0.5;0.053
0.315018;0.237827;3;0.5;0.053
0.316017;0.237201;3;0.5;0.053
0.317006;0.236579;3;0.5;0.053
0.318001;0.235955;3;0.5;0.053
0.319017;0.235317;3;0.5;0.053
0.320016;0.236642;3;0.5;0.053
0.321014;0.236024;3;0.5;0.053
0.322013;0.235405;3;0.5;0.053
0.323011;0.234788;3;0.5;0.053
0.324010;0.234169;3;0.5;0.053
0.325009;0.23549;3;0.5;0.053
0.326009;0.23488;3;0.5;0.053
0.327009;0.234269;3;0.5;0.053
0.328008;0.233659;3;0.5;0.053
0.329008;0.233048;3;0.5;0.053
0.330007;0.234368;3;0.5;0.053
0.331007;0.233764;3;0.5;0.053
0.332006;0.233162;3;0.5;0.053
0.333005;0.23256;3;0.5;0.053
0.334004;0.231959;3;0.5;0.053
0.335002;0.233274;3;0.5;0.053
0.336001;0.23268;3;0.5;0.053
0.337018;0.232076;3;0.5;0.053
0.338017;0.231487;3;0.5;0.053
0.339015;0.230899;3;0.5;0.053
0.340013;0.232215;3;0.5;0.053
0.341011;0.231636;3;0.5;0.053
0.342010;0.231052;3;0.5;0.053
0.343008;0.230469;3;0.5;0.053
0.344006;0.229885;3;0.5;0.053
0.345005;0.231193;3;0.5;0.053
0.346003;0.230613;3;0.5;0.053
0.347002;0.230034;3;0.5;0.053
0.348000;0.229454;3;0.5;0.053
0.349017;0.230739;3;0.5;0.053
0.350014;0.230175;3;0.5;0.053
0.351011;0.229609;3;0.5;0.053
0.352009;0.229044;3;0.5;0.053
0.353008;0.22848;3;0.5;0.053
0.354007;0.229774;3;0.5;0.053
0.355005;0.229216;3;0.5;0.053
0.356004;0.228657;3;0.5;0.053
0.357002;0.2281;3;0.5;0.053
0.358018;0.227532;3;0.5;0.053
0.359014;0.22882;3;0.5;0.053
0.360010;0.22827;3;0.5;0.053
0.361001;0.227722;3;0.5;0.053
0.362017;0.227161;3;0.5;0.053
0.363016;0.226608;3;0.5;0.053
0.364014;0.227884;3;0.5;0.053
0.365012;0.227341;3;0.5;0.053
0.366009;0.226797;3;0.5;0.053
0.367006;0.226251;3;0.5;0.053
0.368004;0.227516;3;0.5;0.053
0.369002;0.226983;3;0.5;0.053
0.370000;0.226446;3;0.5;0.053
0.371017;0.225901;3;0.5;0.053
0.372016;0.225366;3;0.5;0.053
0.373014;0.226623;3;0.5;0.053
0.374012;0.2261;3;0.5;0.053
0.375011;0.225573;3;0.5;0.053
0.376009;0.225047;3;0.5;0.053
0.377008;0.224519;3;0.5;0.053
0.378006;0.225773;3;0.5;0.053
0.379005;0.225251;3;0.5;0.053
0.380003;0.224728;3;0.5;0.053
0.381001;0.224208;3;0.5;0.053
0.382019;0.223678;3;0.5;0.053
0.383017;0.224932;3;0.5;0.053
0.384016;0.224415;3;0.5;0.053
0.385014;0.2239;3;0.5;0.053
0.386013;0.22338;3;0.5;0.053
0.387008;0.224617;3;0.5;0.053
0.388003;0.224113;3;0.5;0.053
0.389001;0.223602;3;0.5;0.053
0.390018;0.223085;3;0.5;0.053
0.391016;0.222579;3;0.5;0.053
0.392014;0.223809;3;0.5;0.053
0.393012;0.223308;3;0.5;0.053
0.394010;0.222808;3;0.5;0.053
0.395008;0.22231;3;0.5;0.053
0.396006;0.221812;3;0.5;0.053
0.397004;0.223038;3;0.5;0.053
0.398002;0.222554;3;0.5;0.053
0.399000;0.222064;3;0.5;0.053
0.400017;0.221558;3;0.5;0.053
0.401015;0.221069;3;0.5;0.053
0.402013;0.222297;3;0.5;0.053
0.403011;0.221811;3;0.5;0.053
0.404008;0.221327;3;0.5;0.053
0.405005;0.220843;3;0.5;0.053
0.406003;0.222046;3;0.5;0.053
0.407001;0.221574;3;0.5;0.053
0.408018;0.221085;3;0.5;0.053
0.409016;0.220607;3;0.5;0.053
0.410013;0.220129;3;0.5;0.053
0.411007;0.221333;3;0.5;0.053
0.412005;0.220868;3;0.5;0.053
0.413003;0.220395;3;0.5;0.053
0.414001;0.219913;3;0.5;0.053
0.415018;0.219433;3;0.5;0.053
0.416016;0.220639;3;0.5;0.053
0.417013;0.220172;3;0.5;0.053
0.418008;0.219708;3;0.5;0.053
0.419003;0.219245;3;0.5;0.053
0.420001;0.220426;3;0.5;0.053
0.421017;0.219966;3;0.5;0.053
0.422014;0.219507;3;0.5;0.053
0.423012;0.219049;3;0.5;0.053
0.424009;0.218593;3;0.5;0.053
0.425007;0.219783;3;0.5;0.053
0.426004;0.219331;3;0.5;0.053
0.427002;0.218879;3;0.5;0.053
0.428017;0.218422;3;0.5;0.053
0.429012;0.217974;3;0.5;0.053
0.430010;0.219161;3;0.5;0.053
0.431005;0.218725;3;0.5;0.053
0.432016;0.218273;3;0.5;0.053
0.433013;0.217828;3;0.5;0.053
0.434010;0.217374;3;0.5;0.053
0.435007;0.21857;3;0.5;0.053
0.436004;0.218126;3;0.5;0.053
0.437002;0.217685;3;0.5;0.053
0.438018;0.217235;3;0.5;0.053
0.439015;0.218412;3;0.5;0.053
0.440013;0.217979;3;0.5;0.053
0.441010;0.217539;3;0.5;0.053
0.442007;0.217102;3;0.5;0.053
0.443005;0.216665;3;0.5;0.053
0.444002;0.217847;3;0.5;0.053
0.445019;0.217409;3;0.5;0.053
0.446016;0.216977;3;0.5;0.053
0.447012;0.216544;3;0.5;0.053
0.448010;0.216105;3;0.5;0.053
0.449007;0.217294;3;0.5;0.053
0.450004;0.216864;3;0.5;0.053
0.451001;0.21644;3;0.5;0.053
0.452017;0.216004;3;0.5;0.053
0.453015;0.217174;3;0.5;0.053
0.454012;0.21676;3;0.5;0.053
0.455009;0.216336;3;0.5;0.053
0.456006;0.215919;3;0.5;0.053
0.457003;0.215498;3;0.5;0.053
0.458018;0.216656;3;0.5;0.053
0.459015;0.216245;3;0.5;0.053
0.460012;0.215838;3;0.5;0.053
0.461009;0.215418;3;0.5;0.053
0.462006;0.215001;3;0.5;0.053
0.463003;0.216155;3;0.5;0.053
0.464000;0.215754;3;0.5;0.053
0.465016;0.215343;3;0.5;0.053
0.466013;0.21493;3;0.5;0.053
0.467011;0.214515;3;0.5;0.053
0.468008;0.215668;3;0.5;0.053
0.469005;0.21526;3;0.5;0.053
0.470002;0.214862;3;0.5;0.053
0.471018;0.214447;3;0.5;0.053
0.472016;0.214036;3;0.5;0.053
0.473013;0.215177;3;0.5;0.053
0.474010;0.214774;3;0.5;0.053
0.475007;0.214384;3;0.5;0.053
0.476005;0.213981;3;0.5;0.053
0.477001;0.215087;3;0.5;0.053
0.478017;0.214698;3;0.5;0.053
0.479014;0.214299;3;0.5;0.053
0.480011;0.213916;3;0.5;0.053
0.481008;0.213519;3;0.5;0.053
0.482005;0.214622;3;0.5;0.053
0.483002;0.214246;3;0.5;0.053
0.484017;0.213861;3;0.5;0.053
0.485014;0.213467;3;0.5;0.053
0.486011;0.213073;3;0.5;0.053
0.487007;0.214168;3;0.5;0.053
0.488004;0.213796;3;0.5;0.053
0.489001;0.213424;3;0.5;0.053
0.490017;0.213028;3;0.5;0.053
0.491014;0.212639;3;0.5;0.053
0.492011;0.213744;3;0.5;0.053
0.493008;0.213356;3;0.5;0.053
0.494004;0.212988;3;0.5;0.053
0.495002;0.212602;3;0.5;0.053
0.496018;0.212209;3;0.5;0.053
0.497015;0.213306;3;0.5;0.053
0.498012;0.212922;3;0.5;0.053
0.499009;0.212555;3;0.5;0.053
0.500006;0.212173;3;0.5;0.053
0.501003;0.21325;3;0.5;0.053
0.502000;0.212882;3;0.5;0.053
0.503016;0.212496;3;0.5;0.053
0.504013;0.212132;3;0.5;0.053
0.505010;0.211754;3;0.5;0.053
0.506007;0.21283;3;0.5;0.053
0.507004;0.212466;3;0.5;0.053
0.508001;0.212102;3;0.5;0.053
0.509017;0.211722;3;0.5;0.053
0.510013;0.21135;3;0.5;0.053
0.511010;0.212423;3;0.5;0.053
0.512007;0.212061;3;0.5;0.053
0.513003;0.2117;3;0.5;0.053
0.514000;0.211332;3;0.5;0.053
0.515016;0.210959;3;0.5;0.053
0.516012;0.212031;3;0.5;0.053
0.517009;0.211671;3;0.5;0.053
0.518006;0.211313;3;0.5;0.053
0.519003;0.21095;3;0.5;0.053
0.520019;0.210582;3;0.5;0.053
0.521016;0.211655;3;0.5;0.053
0.522013;0.211294;3;0.5;0.053
0.523010;0.210937;3;0.5;0.053
0.524007;0.210576;3;0.5;0.053
0.525004;0.21022;3;0.5;0.053
0.526001;0.211284;3;0.5;0.053
0.527017;0.210919;3;0.5;0.053
0.528014;0.210563;3;0.5;0.053
0.529011;0.210207;3;0.5;0.053
0.530008;0.211268;3;0.5;0.053
0.531005;0.210914;3;0.5;0.053
0.532002;0.210561;3;0.5;0.053
0.533018;0.210204;3;0.5;0.053
0.534014;0.209853;3;0.5;0.053
0.535011;0.21091;3;0.5;0.053
0.536008;0.210561;3;0.5;0.053
0.537004;0.210213;3;0.5;0.053
0.538000;0.20987;3;0.5;0.053
0.539016;0.209517;3;0.5;0.053
0.540012;0.210565;3;0.5;0.053
0.541008;0.21022;3;0.5;0.053
0.542005;0.209876;3;0.5;0.053
0.543001;0.209537;3;0.5;0.053
0.544017;0.209189;3;0.5;0.053
0.545013;0.210228;3;0.5;0.053
0.546010;0.209887;3;0.5;0.053
0.547006;0.209547;3;0.5;0.053
0.548003;0.209209;3;0.5;0.053
0.549019;0.208864;3;0.5;0.053
0.550015;0.209897;3;0.5;0.053
0.551012;0.20956;3;0.5;0.053
0.552009;0.209224;3;0.5;0.053
0.553006;0.208889;3;0.5;0.053
0.554002;0.208555;3;0.5;0.053
0.555018;0.209574;3;0.5;0.053
0.556015;0.209242;3;0.5;0.053
0.557012;0.208909;3;0.5;0.053
0.558009;0.208577;3;0.5;0.053
0.559005;0.209587;3;0.5;0.053
0.560002;0.209263;3;0.5;0.053
0.561018;0.208928;3;0.5;0.053
0.562014;0.208599;3;0.5;0.053
0.563011;0.20827;3;0.5;0.053
0.564007;0.209275;3;0.5;0.053
0.565004;0.208956;3;0.5;0.053
0.566000;0.208638;3;0.5;0.053
0.567015;0.208306;3;0.5;0.053
0.568012;0.207981;3;0.5;0.053
0.569008;0.208981;3;0.5;0.053
0.570005;0.208672;3;0.5;0.053
0.571001;0.208361;3;0.5;0.053
0.572017;0.208034;3;0.5;0.053
0.573013;0.207714;3;0.5;0.053
0.574010;0.208722;3;0.5;0.053
0.575007;0.208404;3;0.5;0.053
0.576003;0.208098;3;0.5;0.053
0.577000;0.207781;3;0.5;0.053
0.578016;0.207459;3;0.5;0.053
0.579012;0.208457;3;0.5;0.053
0.580009;0.208142;3;0.5;0.053
0.581006;0.207834;3;0.5;0.053
0.582003;0.207521;3;0.5;0.053
0.583019;0.2085;3;0.5;0.053
0.584015;0.208193;3;0.5;0.053
0.585012;0.20788;3;0.5;0.053
0.586009;0.207571;3;0.5;0.053
0.587005;0.20726;3;0.5;0.053
0.588002;0.20824;3;0.5;0.053
0.589017;0.207925;3;0.5;0.053
0.590013;0.207616;3;0.5;0.053
0.591009;0.207309;3;0.5;0.053
0.592006;0.207001;3;0.5;0.053
0.593002;0.207974;3;0.5;0.053
0.594017;0.207662;3;0.5;0.053
0.595013;0.207357;3;0.5;0.053
0.596009;0.207052;3;0.5;0.053
0.597005;0.206748;3;0.5;0.053
0.598001;0.207713;3;0.5;0.053
0.599016;0.207404;3;0.5;0.053
0.600013;0.207102;3;0.5;0.053
0.601009;0.2068;3;0.5;0.053
0.602006;0.2065;3;0.5;0.053
0.603002;0.207455;3;0.5;0.053
0.604018;0.207151;3;0.5;0.053
0.605015;0.206852;3;0.5;0.053
0.606011;0.206553;3;0.5;0.053
0.607008;0.206255;3;0.5;0.053
0.608005;0.207202;3;0.5;0.053
0.609002;0.206906;3;0.5;0.053
0.610017;0.206604;3;0.5;0.053
0.611014;0.206309;3;0.5;0.053
0.612011;0.206014;3;0.5;0.053
0.613008;0.206953;3;0.5;0.053
0.614004;0.206659;3;0.5;0.053
0.615001;0.206365;3;0.5;0.053
0.616016;0.206067;3;0.5;0.053
0.617013;0.205775;3;0.5;0.053
0.618009;0.206707;3;0.5;0.053
0.619005;0.206416;3;0.5;0.053
0.620001;0.206125;3;0.5;0.053
0.621017;0.20583;3;0.5;0.053
0.622013;0.205541;3;0.5;0.053
0.623009;0.206471;3;0.5;0.053
0.624005;0.206183;3;0.5;0.053
0.625001;0.205897;3;0.5;0.053
0.626016;0.205605;3;0.5;0.053
0.627013;0.205319;3;0.5;0.053
0.628009;0.206246;3;0.5;0.053
0.629005;0.205962;3;0.5;0.053
0.630002;0.205679;3;0.5;0.053
0.631017;0.205391;3;0.5;0.053
0.632013;0.205108;3;0.5;0.053
0.633008;0.20603;3;0.5;0.053
0.634003;0.205749;3;0.5;0.053
0.635017;0.205462;3;0.5;0.053
0.636012;0.205183;3;0.5;0.053
0.637007;0.204903;3;0.5;0.053
0.638003;0.205821;3;0.5;0.053
0.639017;0.205536;3;0.5;0.053
0.640013;0.205258;3;0.5;0.053
0.641008;0.20498;3;0.5;0.053
0.642003;0.204703;3;0.5;0.053
0.643017;0.205608;3;0.5;0.053
0.644013;0.205333;3;0.5;0.053
0.645009;0.205058;3;0.5;0.053
0.646005;0.204783;3;0.5;0.053
0.647000;0.20451;3;0.5;0.053
0.648014;0.205406;3;0.5;0.053
0.649009;0.205136;3;0.5;0.053
0.650005;0.204863;3;0.5;0.053
0.651018;0.204587;3;0.5;0.053
0.652014;0.204316;3;0.5;0.053
0.653009;0.205211;3;0.5;0.053
0.654004;0.204942;3;0.5;0.053
0.655017;0.204668;3;0.5;0.053
0.656011;0.2044;3;0.5;0.053
0.657005;0.204133;3;0.5;0.053
0.658018;0.205011;3;0.5;0.053
0.659013;0.204746;3;0.5;0.053
0.660008;0.20448;3;0.5;0.053
0.661004;0.204214;3;0.5;0.053
0.662017;0.203944;3;0.5;0.053
0.663012;0.204825;3;0.5;0.053
0.664007;0.20456;3;0.5;0.053
0.665002;0.204296;3;0.5;0.053
0.666016;0.204028;3;0.5;0.053
