time [s];velx [m/s];vely [m/s];velz [m/s];posx [m];posy [m];posz [m]
0.000000;0;0;0;1.5;0.5;0.005
0.001007;0.0371446;-8.57936e-09;0.020618;1.5;0.5;0.005
0.002013;0.0516011;2.3482e-07;0.0417987;1.5;0.5;0.005
0.003019;0.0503877;2.20758e-07;0.0315606;1.5;0.5;0.005
0.004024;0.0627044;-6.95368e-08;0.0350539;1.5;0.5;0.005
0.005029;0.0747675;-6.74163e-07;0.0309337;1.5;0.5;0.005
0.006034;0.0859144;-8.68053e-09;0.026441;1.5;0.5;0.005
0.007001;0.0997984;2.28072e-07;0.0282717;1.5;0.5;0.005
0.008006;0.10918;1.66192e-09;0.0321981;1.5;0.5;0.005
0.009011;0.119599;-6.83766e-08;0.0399175;1.5;0.5;0.005
0.010016;0.130205;-3.01395e-07;0.0471733;1.5;0.5;0.005
0.011020;0.141759;-5.49222e-08;0.0515893;1.5;0.5;0.005
0.012024;0.155033;3.63778e-07;0.0526682;1.5;0.5;0.005
0.013028;0.168484;4.44e-07;0.0514912;1.5;0.5;0.005
0.014031;0.18128;2.82629e-07;0.0506448;1.5;0.5;0.005
0.015034;0.192784;-9.95117e-07;0.0512721;1.5;0.5;0.005
0.016036;0.203078;-1.91898e-07;0.053254;1.5;0.5;0.005
0.017038;0.21414;-3.82698e-07;0.0550136;1.5;0.5;0.005
0.018001;0.227776;4.22172e-07;0.0567395;1.5;0.5;0.005
0.019002;0.242103;6.33474e-08;0.0599852;1.5;0.5;0.005
0.020002;0.252495;-2.33934e-07;0.0628132;1.5;0.5;0.005
0.021003;0.26212;-3.38259e-07;0.0651247;1.5;0.5;0.005
0.022004;0.274433;1.98515e-07;0.0682022;1.5;0.5;0.005
0.023004;0.285842;1.11121e-07;0.0734914;1.5;0.5;0.005
0.024005;0.296985;8.27981e-07;0.0803641;1.5;0.5;0.005
0.025005;0.307235;8.46918e-07;0.0849239;1.5;0.5;0.005
0.026005;0.318287;5.10276e-07;0.0855383;1.5;0.5;0.005
0.027005;0.330852;1.10849e-07;0.0815919;1.5;0.5;0.005
0.028004;0.341694;5.05741e-07;0.0812695;1.5;0.5;0.005
0.029003;0.350897;1.95071e-07;0.0891836;1.5;0.5;0.005
0.030000;0.361627;4.21616e-07;0.0991322;1.5;0.5;0.005
0.031035;0.371394;1.17056e-06;0.110922;1.5;0.5;0.005
0.032030;0.37914;1.18583e-06;0.123163;1.5;0.5;0.005
0.033026;0.388726;9.04116e-07;0.128013;1.5;0.5;0.005
0.034021;0.39889;-4.16169e-07;0.120898;1.5;0.5;0.005
0.035017;0.407033;-7.03052e-07;0.122153;1.5;0.5;0.005
0.036012;0.420695;-3.08246e-07;0.132809;1.5;0.5;0.005
0.037006;0.442146;-9.84493e-07;0.133534;1.5;0.5;0.005
0.038036;0.464424;-4.36655e-07;0.121857;1.5;0.5;0.005
0.039028;0.468804;-6.27742e-07;0.10809;1.5;0.5;0.005
0.040022;0.466361;-1.28533e-07;0.107151;1.5;0.5;0.005
0.041016;0.473033;-5.28333e-07;0.117538;1.5;0.5;0.005
0.042009;0.474125;5.98901e-07;0.134449;1.5;0.5;0.005
0.043001;0.468365;2.28193e-08;0.137051;1.5;0.5;0.005
0.044031;0.469388;7.31268e-08;0.110292;1.5;0.5;0.005
0.045023;0.488189;-6.72823e-07;0.0762917;1.5;0.5;0.005
0.046015;0.513421;-3.59018e-07;0.0987094;1.5;0.5;0.005
0.047006;0.546174;1.02658e-07;0.130247;1.5;0.5;0.005
0.048033;0.564932;9.35177e-07;0.121832;1.5;0.5;0.005
0.049022;0.547304;1.41605e-07;0.124567;1.5;0.5;0.005
0.050010;0.531756;2.4993e-07;0.126801;1.5;0.5;0.005
0.051028;0.545578;1.23655e-06;0.120012;1.5;0.5;0.005
0.052010;0.549582;1.09476e-06;0.109224;1.5;0.5;0.005
0.053037;0.528825;1.63345e-06;0.0846401;1.5;0.5;0.005
0.054026;0.543145;-4.35441e-07;0.0578389;1.5;0.5;0.005
0.055017;0.574777;-2.72433e-07;0.0754931;1.5;0.5;0.005
0.056006;0.589939;-1.65618e-06;0.121063;1.5;0.5;0.005
0.057035;0.589909;-3.32876e-06;0.128693;1.5;0.5;0.005
0.058026;0.581286;-2.85628e-06;0.12968;1.5;0.5;0.005
0.059014;0.569004;-2.5251e-06;0.107142;1.5;0.5;0.005
0.060002;0.575638;-4.00245e-06;0.0683218;1.5;0.5;0.005
0.061029;0.585148;-3.89257e-07;0.0714756;1.5;0.5;0.005
0.062019;0.593033;4.86187e-07;0.101394;1.5;0.5;0.005
0.063009;0.603135;1.07002e-06;0.109867;1.5;0.5;0.005
0.064036;0.6197;-1.39188e-06;0.116816;1.5;0.5;0.005
0.065023;0.628474;-1.97912e-06;0.125897;1.5;0.5;0.005
0.066011;0.620798;-6.41486e-07;0.117525;1.5;0.5;0.005
0.067035;0.625817;-2.93865e-07;0.109688;1.5;0.5;0.005
0.068005;0.637078;8.81619e-07;0.118258;1.5;0.5;0.005
0.069013;0.653825;-1.40946e-06;0.150371;1.5;0.5;0.005
0.070034;0.667126;-3.63737e-06;0.142392;1.5;0.5;0.005
0.071020;0.674107;-3.69463e-06;0.117939;1.5;0.5;0.005
0.072001;0.670237;-1.12752e-06;0.113516;1.5;0.5;0.005
0.073021;0.6617;6.18077e-07;0.0950072;1.5;0.5;0.005
0.074006;0.667822;1.40088e-06;0.115981;1.5;0.5;0.005
0.075030;0.683413;-3.10969e-07;0.168458;1.5;0.5;0.005
0.076008;0.713318;-2.38211e-07;0.122964;1.5;0.5;0.005
0.077013;0.716693;-1.88869e-06;0.102855;1.5;0.5;0.005
0.078033;0.698366;1.18617e-06;0.104214;1.5;0.5;0.005
0.079018;0.705151;-1.92794e-06;0.101135;1.5;0.5;0.005
0.080002;0.715933;8.14104e-06;0.0910611;1.5;0.5;0.005
0.081020;0.724805;-1.62213e-05;0.10648;1.5;0.5;0.005
0.082004;0.736361;-1.50813e-05;0.123764;1.5;0.5;0.005
0.083025;0.73015;-9.85439e-06;0.126092;1.5;0.5;0.005
0.084009;0.719609;-2.00852e-05;0.113345;1.5;0.5;0.005
0.085032;0.732027;-2.19707e-05;0.0977047;1.5;0.5;0.005
0.086017;0.743993;-6.45387e-06;0.0955236;1.5;0.5;0.005
0.087036;0.758068;-7.59845e-06;0.122937;1.5;0.5;0.005
0.088017;0.772699;-3.52128e-06;0.135344;1.5;0.5;0.005
0.089037;0.776327;6.5939e-06;0.12426;1.5;0.5;0.005
0.090023;0.772595;7.03468e-06;0.1281;1.5;0.5;0.005
0.091007;0.781274;-3.29892e-06;0.121275;1.5;0.5;0.005
0.092030;0.788402;6.17404e-06;0.110829;1.5;0.5;0.005
0.093011;0.793195;9.66728e-06;0.112347;1.5;0.5;0.005
0.094031;0.810762;1.19066e-05;0.12299;1.5;0.5;0.005
0.095016;0.828037;6.6426e-06;0.119188;1.5;0.5;0.005
0.096001;0.8307;3.42648e-06;0.116918;1.5;0.5;0.005
0.097024;0.835067;-3.42616e-07;0.123063;1.5;0.5;0.005
0.098005;0.834176;-2.506e-06;0.114849;1.5;0.5;0.005
0.099015;0.830443;-2.71367e-06;0.105959;1.5;0.5;0.005
0.100032;0.828779;1.66716e-06;0.117859;1.5;0.5;0.005
0.101017;0.833982;1.61105e-05;0.127349;1.5;0.5;0.005
0.102026;0.821301;1.84954e-05;0.119938;1.5;0.5;0.005
0.103035;0.802211;2.45669e-05;0.133197;1.5;0.5;0.005
0.104013;0.79201;9.88818e-06;0.13256;1.5;0.5;0.005
0.105038;0.796439;2.00868e-05;0.109203;1.5;0.5;0.005
0.106025;0.80145;-1.04607e-05;0.10767;1.5;0.5;0.005
0.107012;0.814914;-3.71996e-06;0.123728;1.5;0.5;0.005
0.108034;0.835376;7.28186e-06;0.112828;1.5;0.5;0.005
0.109020;0.843008;8.24187e-06;0.113361;1.5;0.5;0.005
0.110007;0.836285;-1.0559e-05;0.128006;1.5;0.5;0.005
0.111029;0.827495;-1.58624e-05;0.130813;1.5;0.5;0.005
0.112008;0.838112;-1.54259e-05;0.118986;1.5;0.5;0.005
0.113010;0.848499;-1.61944e-05;0.11041;1.5;0.5;0.005
0.114015;0.850959;-2.35854e-05;0.11926;1.5;0.5;0.005
0.115030;0.851711;-1.96085e-05;0.123253;1.5;0.5;0.005
0.116002;0.844376;-1.72141e-05;0.120621;1.5;0.5;0.005
0.117018;0.827716;-2.11408e-05;0.126465;1.5;0.5;0.005
0.118002;0.81799;-2.25601e-05;0.120707;1.5;0.5;0.005
0.119022;0.830518;-1.54809e-05;0.098392;1.5;0.5;0.005
0.120005;0.837608;-1.77879e-05;0.0964984;1.5;0.5;0.005
0.121022;0.840423;-2.49676e-05;0.111257;1.5;0.5;0.005
0.122029;0.84591;-3.017e-05;0.10079;1.5;0.5;0.005
0.123004;0.845458;-3.15127e-05;0.104602;1.5;0.5;0.005
0.124012;0.823321;-2.41215e-05;0.119422;1.5;0.5;0.005
0.125026;0.801654;-1.08821e-05;0.112392;1.5;0.5;0.005
0.126001;0.814585;-1.57967e-06;0.0933006;1.5;0.5;0.005
0.127013;0.842945;-4.43158e-05;0.0857566;1.5;0.5;0.005
0.128032;0.844924;-1.57555e-05;0.0937807;1.5;0.5;0.005
0.129014;0.835154;6.64368e-06;0.0994644;1.5;0.5;0.005
0.130005;0.843073;-3.7018e-05;0.106941;1.5;0.5;0.005
0.131021;0.830553;-1.6727e-05;0.115496;1.5;0.5;0.005
0.132029;0.800791;4.56637e-05;0.121813;1.5;0.5;0.005
0.133004;0.80396;2.6533e-05;0.117145;1.5;0.5;0.005
0.134018;0.822625;-4.00971e-05;0.0916365;1.5;0.5;0.005
0.135028;0.82472;3.86209e-05;0.102556;1.5;0.5;0.005
0.136029;0.790542;-2.87906e-06;0.11385;1.5;0.5;0.005
0.137004;0.774408;-4.82289e-05;0.109807;1.5;0.5;0.005
0.138019;0.78075;1.40264e-05;0.105435;1.5;0.5;0.005
0.139028;0.777029;-0.000128298;0.113642;1.5;0.5;0.005
0.140001;0.7661;2.20716e-05;0.124828;1.5;0.5;0.005
0.141020;0.773301;-6.34665e-05;0.1127;1.5;0.5;0.005
0.142001;0.782319;-2.27703e-05;0.0809324;1.5;0.5;0.005
0.143019;0.782538;5.1057e-05;0.0766441;1.5;0.5;0.005
0.144003;0.772022;3.47128e-05;0.0843942;1.5;0.5;0.005
0.145022;0.768918;3.48175e-05;0.0937705;1.5;0.5;0.005
0.146036;0.754188;-4.95594e-05;0.111045;1.5;0.5;0.005
0.147011;0.767034;-9.01891e-05;0.115637;1.5;0.5;0.005
0.148027;0.792803;-0.000141065;0.0808448;1.5;0.5;0.005
0.149009;0.795969;4.72738e-05;0.0548533;1.5;0.5;0.005
0.150032;0.766814;1.01856e-05;0.0883807;1.5;0.5;0.005
0.151012;0.775049;-3.01054e-05;0.0886219;1.5;0.5;0.005
0.152026;0.793173;0.000116842;0.0788189;1.5;0.5;0.005
0.153025;0.774784;2.32951e-05;0.0991478;1.5;0.5;0.005
0.154036;0.781477;3.30004e-05;0.152028;1.5;0.5;0.005
0.155020;0.779941;1.17822e-05;0.137195;1.5;0.5;0.005
0.156004;0.778506;2.05469e-05;0.117892;1.5;0.5;0.005
0.157014;0.766453;-2.12196e-05;0.121382;1.5;0.5;0.005
0.158015;0.771867;-7.8425e-05;0.0801079;1.5;0.5;0.005
0.159026;0.785305;4.99065e-05;0.0679407;1.5;0.5;0.005
0.160007;0.781697;-6.96279e-05;0.103904;1.5;0.5;0.005
0.161027;0.75465;-3.25965e-06;0.12301;1.5;0.5;0.005
0.162004;0.745334;-4.7479e-05;0.127906;1.5;0.5;0.005
0.163020;0.754354;-0.000103195;0.127981;1.5;0.5;0.005
0.164005;0.755413;-0.000123764;0.140595;1.5;0.5;0.005
0.165026;0.739479;-2.85214e-05;0.131702;1.5;0.5;0.005
0.166036;0.743293;-3.47887e-05;0.0985899;1.5;0.5;0.005
0.167023;0.73634;1.06739e-05;0.0790681;1.5;0.5;0.005
0.168034;0.746299;-1.14943e-06;0.0957068;1.5;0.5;0.005
0.169035;0.758783;0.000103835;0.118912;1.5;0.5;0.005
0.170006;0.743329;0.000117323;0.11005;1.5;0.5;0.005
0.171027;0.75683;-4.4006e-05;0.0901321;1.5;0.5;0.005
0.172010;0.770446;-0.000144859;0.0679846;1.5;0.5;0.005
0.173017;0.754999;-6.28077e-05;0.061288;1.5;0.5;0.005
0.174035;0.724922;-1.03481e-05;0.0753545;1.5;0.5;0.005
0.175019;0.701589;-6.11298e-05;0.0813232;1.5;0.5;0.005
0.176003;0.709163;-0.000209671;0.0634722;1.5;0.5;0.005
0.177024;0.733856;-0.000209682;0.0363519;1.5;0.5;0.005
0.178009;0.75801;3.045e-05;0.0417038;1.5;0.5;0.005
0.179029;0.728815;2.37262e-05;0.0614289;1.5;0.5;0.005
0.180009;0.720579;-2.24389e-06;0.0568636;1.5;0.5;0.005
0.181029;0.750827;0.000137673;0.0605983;1.5;0.5;0.005
0.182011;0.735947;7.24281e-06;0.0618671;1.5;0.5;0.005
0.183013;0.718587;-3.90589e-05;0.0601079;1.5;0.5;0.005
0.184021;0.693291;-4.71023e-05;0.0807238;1.5;0.5;0.005
0.185002;0.698144;-0.000110133;0.0678955;1.5;0.5;0.005
0.186024;0.724925;-0.000341732;0.0320257;1.5;0.5;0.005
0.187008;0.771547;-0.000435229;0.032588;1.5;0.5;0.005
0.188028;0.807049;0.000541229;0.0613603;1.5;0.5;0.005
0.189011;0.781718;3.21345e-05;0.0802485;1.5;0.5;0.005
0.190032;0.752832;8.0021e-06;0.0630746;1.5;0.5;0.005
0.191014;0.724369;-0.000241127;0.0455435;1.5;0.5;0.005
0.192030;0.735633;-0.00143619;0.0488557;1.5;0.5;0.005
0.193012;0.754627;0.000802524;0.0610233;1.5;0.5;0.005
0.194033;0.742489;9.27603e-05;0.0776333;1.5;0.5;0.005
0.195017;0.704885;-4.91649e-05;0.091476;1.5;0.5;0.005
0.196001;0.694129;0.000445663;0.091158;1.5;0.5;0.005
0.197021;0.701006;0.00037893;0.0838129;1.5;0.5;0.005
0.198005;0.723364;-0.00025027;0.0654712;1.5;0.5;0.005
0.199024;0.751182;2.62063e-05;0.0577452;1.5;0.5;0.005
0.200002;0.752855;-0.000391107;0.0705024;1.5;0.5;0.005
0.201015;0.755092;-0.000498561;0.0682299;1.5;0.5;0.005
0.202033;0.750552;-0.000417049;0.0756359;1.5;0.5;0.005
0.203015;0.732485;0.000510763;0.0819665;1.5;0.5;0.005
0.204033;0.728544;0.000873488;0.0787105;1.5;0.5;0.005
0.205018;0.737879;0.000680435;0.0778735;1.5;0.5;0.005
0.206001;0.761025;0.000228598;0.089366;1.5;0.5;0.005
0.207023;0.762;0.000230029;0.0892841;1.5;0.5;0.005
0.208006;0.733311;0.000713388;0.0787181;1.5;0.5;0.005
0.209028;0.710961;3.48859e-05;0.0761015;1.5;0.5;0.005
0.210012;0.697943;-0.000136373;0.0660674;1.5;0.5;0.005
0.211030;0.70611;-0.000992891;0.033856;1.5;0.5;0.005
0.212011;0.719497;-0.0016301;0.015286;1.5;0.5;0.005
0.213031;0.709769;-0.00118991;0.0557543;1.5;0.5;0.005
0.214014;0.68752;-0.00322797;0.0942457;1.5;0.5;0.005
0.215031;0.665755;-0.00116647;0.0992236;1.5;0.5;0.005
0.216008;0.650901;0.000374466;0.0977999;1.5;0.5;0.005
0.217028;0.646371;0.00162625;0.0810681;1.5;0.5;0.005
0.218011;0.657846;0.00416492;0.0688955;1.5;0.5;0.005
0.219028;0.686354;0.00482575;0.0706188;1.5;0.5;0.005
0.220005;0.687524;0.00300053;0.0736795;1.5;0.5;0.005
0.221025;0.678992;0.00218213;0.0699062;1.5;0.5;0.005
0.222007;0.666946;-0.0022455;0.0725095;1.5;0.5;0.005
0.223017;0.654884;0.00343178;0.0827933;1.5;0.5;0.005
0.224034;0.652572;-0.000556785;0.0781439;1.5;0.5;0.005
0.225013;0.658486;-0.00939947;0.0828807;1.5;0.5;0.005
0.226032;0.659154;-0.00800785;0.0786479;1.5;0.5;0.005
0.227015;0.657512;-0.000835125;0.0729049;1.5;0.5;0.005
0.228025;0.665824;0.000548032;0.0680418;1.5;0.5;0.005
0.229034;0.679901;0.0057723;0.0799592;1.5;0.5;0.005
0.230007;0.675852;0.00982291;0.0834132;1.5;0.5;0.005
0.231024;0.653282;0.00757759;0.0702093;1.5;0.5;0.005
0.232028;0.64346;0.00933221;0.0784203;1.5;0.5;0.005
0.233038;0.636001;0.0128747;0.0706291;1.5;0.5;0.005
0.234019;0.655372;0.0136598;0.0495186;1.5;0.5;0.005
0.235000;0.688189;0.0118587;0.0422571;1.5;0.5;0.005
0.236021;0.718047;0.0134858;0.050321;1.5;0.5;0.005
0.237005;0.733009;0.012804;0.0644549;1.5;0.5;0.005
0.238026;0.701766;0.0129431;0.0949736;1.5;0.5;0.005
0.239010;0.671686;0.00852857;0.111479;1.5;0.5;0.005
0.240030;0.663071;0.004353;0.112087;1.5;0.5;0.005
0.241011;0.66549;0.002978;0.10774;1.5;0.5;0.005
0.242032;0.694679;-0.00248668;0.0951366;1.5;0.5;0.005
0.243005;0.702317;-0.00363935;0.0727072;1.5;0.5;0.005
0.244008;0.680357;0.00523929;0.0675434;1.5;0.5;0.005
0.245021;0.664332;0.00348865;0.0714653;1.5;0.5;0.005
0.246004;0.655297;-0.000191417;0.0809438;1.5;0.5;0.005
0.247025;0.65606;0.00323364;0.087158;1.5;0.5;0.005
0.248008;0.667016;0.0119609;0.081015;1.5;0.5;0.005
0.249028;0.685799;0.0203339;0.0807614;1.5;0.5;0.005
0.250008;0.696396;0.0194616;0.0712758;1.5;0.5;0.005
0.251022;0.692743;0.00442474;0.0693702;1.5;0.5;0.005
0.252002;0.68096;-0.00775245;0.0833612;1.5;0.5;0.005
0.253020;0.67202;-0.0144687;0.095546;1.5;0.5;0.005
0.254002;0.666531;-0.01675;0.0940462;1.5;0.5;0.005
0.255023;0.667944;-0.0118612;0.0893866;1.5;0.5;0.005
0.256005;0.670331;-0.0108014;0.0877817;1.5;0.5;0.005
0.257026;0.676513;-0.00798818;0.0816989;1.5;0.5;0.005
0.258008;0.681912;-0.00822098;0.0785391;1.5;0.5;0.005
0.259029;0.68562;-0.0137899;0.0878266;1.5;0.5;0.005
0.260009;0.679371;-0.00790445;0.0808288;1.5;0.5;0.005
0.261029;0.676677;0.000870928;0.0639517;1.5;0.5;0.005
0.262011;0.684244;0.00739988;0.064702;1.5;0.5;0.005
0.263032;0.69736;0.0198839;0.0684415;1.5;0.5;0.005
0.264009;0.708196;0.0261048;0.0745556;1.5;0.5;0.005
0.265030;0.704034;0.0106471;0.0833955;1.5;0.5;0.005
0.266013;0.69423;0.00725113;0.0744357;1.5;0.5;0.005
0.267029;0.699486;0.0117773;0.0580957;1.5;0.5;0.005
0.268009;0.709442;0.0070218;0.0576445;1.5;0.5;0.005
0.269030;0.689479;0.00501938;0.0595468;1.5;0.5;0.005
0.270013;0.672633;0.00410528;0.0575687;1.5;0.5;0.005
0.271033;0.668558;0.00776317;0.0575402;1.5;0.5;0.005
0.272016;0.659694;0.00647423;0.0494849;1.5;0.5;0.005
0.273036;0.674964;0.00139167;0.0526152;1.5;0.5;0.005
0.274018;0.691546;0.00369845;0.0727069;1.5;0.5;0.005
0.275000;0.680852;0.0105482;0.0758473;1.5;0.5;0.005
0.276020;0.673384;0.00798276;0.0659904;1.5;0.5;0.005
0.277001;0.684267;0.00211647;0.0524696;1.5;0.5;0.005
0.278020;0.702687;-0.00990416;0.0330716;1.5;0.5;0.005
0.279002;0.721383;-0.0206037;0.0359526;1.5;0.5;0.005
0.280020;0.726462;-0.0147392;0.0671176;1.5;0.5;0.005
0.281000;0.707835;-0.0111953;0.0859755;1.5;0.5;0.005
0.282019;0.691257;-0.0153148;0.0845636;1.5;0.5;0.005
0.283037;0.68665;-0.0244283;0.0774804;1.5;0.5;0.005
0.284018;0.688675;-0.0195025;0.0582928;1.5;0.5;0.005
0.285037;0.691421;-0.0120319;0.0441004;1.5;0.5;0.005
0.286018;0.689753;-0.0071222;0.0559849;1.5;0.5;0.005
0.287036;0.679429;-0.0075574;0.0718904;1.5;0.5;0.005
0.288017;0.683261;-0.0159448;0.0742826;1.5;0.5;0.005
0.289036;0.692694;-0.0212818;0.0768075;1.5;0.5;0.005
0.290018;0.699838;-0.0175823;0.085553;1.5;0.5;0.005
0.291037;0.702976;-0.0251852;0.0785111;1.5;0.5;0.005
0.292018;0.710032;-0.0179948;0.0693936;1.5;0.5;0.005
0.293037;0.711719;-0.0113053;0.0683115;1.5;0.5;0.005
0.294019;0.711361;-0.000852919;0.0784005;1.5;0.5;0.005
0.295001;0.710645;0.0166309;0.0912427;1.5;0.5;0.005
0.296020;0.69612;0.0104913;0.0814181;1.5;0.5;0.005
0.297002;0.696987;0.0103687;0.0776787;1.5;0.5;0.005
0.298022;0.703947;0.0103144;0.0683846;1.5;0.5;0.005
0.299004;0.706352;0.0060553;0.0472556;1.5;0.5;0.005
0.300023;0.724138;0.00176794;0.0578073;1.5;0.5;0.005
0.301005;0.723904;-0.00391355;0.0779717;1.5;0.5;0.005
0.302024;0.704913;-0.00828986;0.0751235;1.5;0.5;0.005
0.303007;0.690737;-0.0139347;0.0747832;1.5;0.5;0.005
0.304026;0.671597;-0.0162485;0.0696517;1.5;0.5;0.005
0.305008;0.650006;-0.0176998;0.0728125;1.5;0.5;0.005
0.306027;0.651618;-0.018723;0.0680798;1.5;0.5;0.005
0.307009;0.66508;-0.0127841;0.0538039;1.5;0.5;0.005
0.308028;0.682911;-0.00470634;0.0525903;1.5;0.5;0.005
0.309009;0.688585;-0.00941444;0.053654;1.5;0.5;0.005
0.310028;0.690978;-0.0147995;0.0567623;1.5;0.5;0.005
0.311009;0.694527;-0.0104317;0.0659306;1.5;0.5;0.005
0.312028;0.694657;-0.0122722;0.0837586;1.5;0.5;0.005
0.313009;0.69315;-0.0183591;0.0987376;1.5;0.5;0.005
0.314028;0.688571;-0.022025;0.0965327;1.5;0.5;0.005
0.315009;0.679325;-0.0223236;0.0880363;1.5;0.5;0.005
0.316026;0.666491;-0.023813;0.0865509;1.5;0.5;0.005
0.317006;0.665678;-0.0242615;0.0795156;1.5;0.5;0.005
0.318025;0.666612;-0.0206091;0.0750027;1.5;0.5;0.005
0.319006;0.666881;-0.0186133;0.0787977;1.5;0.5;0.005
0.320024;0.66137;-0.0262379;0.0728179;1.5;0.5;0.005
0.321005;0.660292;-0.0301411;0.0556637;1.5;0.5;0.005
0.322024;0.662337;-0.0269008;0.0445255;1.5;0.5;0.005
0.323004;0.664402;-0.0340776;0.0438295;1.5;0.5;0.005
0.324023;0.666156;-0.0346153;0.0532805;1.5;0.5;0.005
0.325004;0.659026;-0.0298472;0.0717238;1.5;0.5;0.005
0.326023;0.650063;-0.0250244;0.07321;1.5;0.5;0.005
0.327035;0.644649;-0.0255539;0.0700581;1.5;0.5;0.005
0.328013;0.648904;-0.0206392;0.0683415;1.5;0.5;0.005
0.329032;0.658396;-0.0152525;0.0632945;1.5;0.5;0.005
0.330012;0.671335;-0.0108338;0.0656972;1.5;0.5;0.005
0.331031;0.678936;-0.00166467;0.0755995;1.5;0.5;0.005
0.332012;0.683034;0.00591244;0.0806995;1.5;0.5;0.005
0.333030;0.6864;0.0089974;0.0842508;1.5;0.5;0.005
0.334011;0.686243;0.00834208;0.0747504;1.5;0.5;0.005
0.335029;0.696218;0.0108333;0.059738;1.5;0.5;0.005
0.336009;0.703092;0.0134792;0.0552661;1.5;0.5;0.005
0.337027;0.70029;0.0137372;0.0581707;1.5;0.5;0.005
0.338008;0.695534;0.0143521;0.0627553;1.5;0.5;0.005
0.339024;0.687512;0.0117974;0.0687231;1.5;0.5;0.005
0.340003;0.680517;0.00760683;0.066278;1.5;0.5;0.005
0.341021;0.686096;0.00370492;0.060581;1.5;0.5;0.005
0.342002;0.697474;0.00134549;0.0586013;1.5;0.5;0.005
0.343020;0.691137;-0.00219819;0.0547898;1.5;0.5;0.005
0.344001;0.67698;-0.00467761;0.0477781;1.5;0.5;0.005
0.345018;0.662715;-0.00554707;0.0415295;1.5;0.5;0.005
0.346036;0.655752;0.00127644;0.0357656;1.5;0.5;0.005
0.347017;0.652284;0.00847077;0.0381906;1.5;0.5;0.005
0.348035;0.640687;0.00809252;0.0408653;1.5;0.5;0.005
0.349016;0.641578;0.00183133;0.0355382;1.5;0.5;0.005
0.350034;0.657311;-0.0113976;0.036925;1.5;0.5;0.005
0.351014;0.671261;-0.0170414;0.0469422;1.5;0.5;0.005
0.352032;0.669064;-0.0183722;0.0532938;1.5;0.5;0.005
0.353012;0.651639;-0.0196738;0.0469809;1.5;0.5;0.005
0.354030;0.647217;-0.023308;0.0410371;1.5;0.5;0.005
0.355010;0.648722;-0.028563;0.0454692;1.5;0.5;0.005
0.356029;0.643192;-0.0347953;0.0581162;1.5;0.5;0.005
0.357009;0.638378;-0.0283968;0.0652024;1.5;0.5;0.005
0.358027;0.641942;-0.0131245;0.0576276;1.5;0.5;0.005
0.359008;0.656253;-0.00645937;0.0485912;1.5;0.5;0.005
0.360026;0.668487;-0.00139402;0.050809;1.5;0.5;0.005
0.361007;0.676639;-0.000631909;0.0621473;1.5;0.5;0.005
0.362025;0.682446;-0.00258843;0.0764654;1.5;0.5;0.005
0.363006;0.683601;0.000151036;0.0947571;1.5;0.5;0.005
0.364024;0.670456;0.00129833;0.0958772;1.5;0.5;0.005
0.365005;0.660481;-0.000356444;0.0617231;1.5;0.5;0.005
0.366023;0.661928;-0.00119395;0.026341;1.5;0.5;0.005
0.367001;0.676854;-0.00079317;0.0159346;1.5;0.5;0.005
0.368019;0.687946;0.0021516;0.0170001;1.5;0.5;0.005
0.369037;0.699968;0.00387734;0.0431704;1.5;0.5;0.005
0.370018;0.693839;0.00306588;0.0749457;1.5;0.5;0.005
0.371036;0.657783;0.00265388;0.0673563;1.5;0.5;0.005
0.372017;0.649347;0.00365029;0.0462889;1.5;0.5;0.005
0.373033;0.649791;0.000895622;0.0319642;1.5;0.5;0.005
