time [s];velx [m/s];vely [m/s];velz [m/s];posx [m];posy [m];posz [m]
0.000000;0;0;0;1.5;0.5;0.004
0.001020;0.0100503;2.77926e-10;0.00690583;1.5;0.5;0.004
0.002001;0.0231016;-8.45422e-08;0.00669909;1.5;0.5;0.004
0.003021;0.0342483;-6.21685e-08;0.0056436;1.5;0.5;0.004
0.004002;0.0459001;-1.4189e-07;0.00598148;1.5;0.5;0.004
0.005022;0.053202;-3.96691e-07;0.00474303;1.5;0.5;0.004
0.006003;0.0614457;-2.88841e-08;0.00491084;1.5;0.5;0.004
0.007022;0.0696442;-6.11334e-08;0.00510384;1.5;0.5;0.004
0.008002;0.0778019;-6.73388e-08;0.00530736;1.5;0.5;0.004
0.009020;0.0863606;-2.9953e-07;0.00640518;1.5;0.5;0.004
0.010000;0.0944242;-1.80995e-07;0.00885262;1.5;0.5;0.004
0.011017;0.102406;-1.61165e-07;0.0115399;1.5;0.5;0.004
0.012034;0.110367;4.32263e-07;0.0141028;1.5;0.5;0.004
0.013012;0.118433;1.38511e-07;0.0161788;1.5;0.5;0.004
0.014028;0.127646;4.69561e-07;0.0170566;1.5;0.5;0.004
0.015005;0.138454;2.71734e-07;0.0165645;1.5;0.5;0.004
0.016020;0.151172;1.95145e-07;0.0172429;1.5;0.5;0.004
0.017034;0.163847;4.16879e-07;0.0170533;1.5;0.5;0.004
0.018010;0.176138;6.44648e-07;0.0150127;1.5;0.5;0.004
0.019023;0.18754;6.2784e-07;0.0139971;1.5;0.5;0.004
0.020036;0.19739;8.16791e-08;0.0144031;1.5;0.5;0.004
0.021012;0.205145;-1.22979e-07;0.0160749;1.5;0.5;0.004
0.022025;0.211817;-3.56611e-08;0.0182828;1.5;0.5;0.004
0.023037;0.217929;-2.08135e-07;0.0192433;1.5;0.5;0.004
0.024013;0.223837;5.62013e-08;0.0186814;1.5;0.5;0.004
0.025025;0.230515;-2.4973e-07;0.0166764;1.5;0.5;0.004
0.026000;0.237308;-3.49374e-08;0.0144339;1.5;0.5;0.004
0.027012;0.244175;-1.99167e-08;0.0133991;1.5;0.5;0.004
0.028025;0.25066;9.59684e-08;0.0138028;1.5;0.5;0.004
0.029037;0.256964;2.95828e-07;0.0156642;1.5;0.5;0.004
0.030010;0.262879;4.3666e-07;0.0190228;1.5;0.5;0.004
0.031021;0.268394;5.74742e-07;0.0226078;1.5;0.5;0.004
0.032031;0.2734;5.00219e-07;0.0228507;1.5;0.5;0.004
0.033004;0.278191;1.83241e-07;0.019845;1.5;0.5;0.004
0.034014;0.283156;1.54697e-07;0.0156418;1.5;0.5;0.004
0.035024;0.287668;-8.28997e-08;0.0119841;1.5;0.5;0.004
0.036035;0.290989;3.46976e-08;0.0108388;1.5;0.5;0.004
0.037007;0.292803;1.14905e-07;0.0126459;1.5;0.5;0.004
0.038017;0.294427;-2.76868e-07;0.0169386;1.5;0.5;0.004
0.039025;0.297908;-2.91936e-07;0.0208382;1.5;0.5;0.004
0.040034;0.304499;-4.23525e-07;0.0211808;1.5;0.5;0.004
0.041006;0.31339;1.26989e-07;0.0172803;1.5;0.5;0.004
0.042014;0.323656;1.31812e-07;0.0111133;1.5;0.5;0.004
0.043023;0.332452;-3.67629e-07;0.00703796;1.5;0.5;0.004
0.044030;0.337219;-3.38653e-08;0.00780986;1.5;0.5;0.004
0.045037;0.338275;-2.50157e-07;0.0123963;1.5;0.5;0.004
0.046007;0.338599;1.00928e-07;0.0173398;1.5;0.5;0.004
0.047014;0.342361;-5.75762e-08;0.0203026;1.5;0.5;0.004
0.048021;0.351607;-1.35668e-07;0.0193148;1.5;0.5;0.004
0.049027;0.361634;8.7708e-08;0.0146033;1.5;0.5;0.004
0.050033;0.367855;-2.02997e-08;0.010098;1.5;0.5;0.004
0.051001;0.369508;3.60904e-07;0.0107486;1.5;0.5;0.004
0.052007;0.366859;4.60597e-07;0.0121686;1.5;0.5;0.004
0.053012;0.365204;4.08688e-07;0.0114444;1.5;0.5;0.004
0.054017;0.372227;1.72861e-07;0.0127468;1.5;0.5;0.004
0.055020;0.386995;1.60962e-07;0.0176262;1.5;0.5;0.004
0.056024;0.396887;-1.67634e-08;0.0207994;1.5;0.5;0.004
0.057028;0.397746;5.89209e-08;0.0201341;1.5;0.5;0.004
0.058032;0.393938;2.80507e-07;0.0185896;1.5;0.5;0.004
0.059037;0.388527;1.65968e-07;0.0117478;1.5;0.5;0.004
0.060003;0.389416;-2.77941e-07;0.00456205;1.5;0.5;0.004
0.061007;0.400164;-2.49594e-07;0.00811569;1.5;0.5;0.004
0.062010;0.412637;-5.23468e-07;0.0231124;1.5;0.5;0.004
0.063013;0.414372;-5.39436e-07;0.0356492;1.5;0.5;0.004
0.064018;0.40828;-6.00301e-07;0.0355355;1.5;0.5;0.004
0.065023;0.403454;-4.04631e-07;0.0223914;1.5;0.5;0.004
0.066028;0.404718;-1.59269e-07;0.00461054;1.5;0.5;0.004
0.067032;0.413391;2.19513e-07;0.000328017;1.5;0.5;0.004
0.068036;0.422095;7.25875e-07;0.0181379;1.5;0.5;0.004
0.069003;0.419896;7.42607e-07;0.0394864;1.5;0.5;0.004
0.070007;0.410543;7.95438e-07;0.0457668;1.5;0.5;0.004
0.071012;0.407346;2.20268e-09;0.0373876;1.5;0.5;0.004
0.072016;0.412656;-9.04385e-07;0.0238353;1.5;0.5;0.004
0.073020;0.423428;-3.58231e-07;0.0128252;1.5;0.5;0.004
0.074024;0.434645;8.04511e-07;0.0121836;1.5;0.5;0.004
0.075028;0.435774;1.2184e-06;0.0233711;1.5;0.5;0.004
0.076032;0.424167;1.1296e-06;0.0363912;1.5;0.5;0.004
0.077035;0.412458;3.88329e-07;0.0404691;1.5;0.5;0.004
0.078002;0.409523;-1.5166e-07;0.0369799;1.5;0.5;0.004
0.079005;0.414738;2.85473e-07;0.0307736;1.5;0.5;0.004
0.080008;0.426411;9.58998e-07;0.0221896;1.5;0.5;0.004
0.081011;0.43783;1.87187e-06;0.0126745;1.5;0.5;0.004
0.082014;0.438687;1.56839e-06;0.00968743;1.5;0.5;0.004
0.083017;0.430209;5.26741e-07;0.0213786;1.5;0.5;0.004
0.084019;0.416376;-5.98106e-08;0.0334846;1.5;0.5;0.004
0.085022;0.413475;2.18431e-07;0.0341149;1.5;0.5;0.004
0.086024;0.419375;6.06857e-07;0.0278308;1.5;0.5;0.004
0.087026;0.432528;6.18437e-07;0.0193687;1.5;0.5;0.004
0.088028;0.446631;-3.00445e-08;0.0126045;1.5;0.5;0.004
0.089029;0.447199;-3.68928e-07;0.0120162;1.5;0.5;0.004
0.090031;0.435208;-1.3746e-06;0.0207353;1.5;0.5;0.004
0.091032;0.425855;-9.38458e-07;0.028149;1.5;0.5;0.004
0.092033;0.425252;-4.60403e-07;0.0278503;1.5;0.5;0.004
0.093032;0.431078;-4.55766e-07;0.0285692;1.5;0.5;0.004
0.094032;0.440965;-9.80796e-07;0.0350731;1.5;0.5;0.004
0.095032;0.450599;-7.00938e-07;0.0362309;1.5;0.5;0.004
0.096032;0.45311;-1.12505e-06;0.0281702;1.5;0.5;0.004
0.097032;0.447412;-1.04496e-06;0.0231282;1.5;0.5;0.004
0.098032;0.442649;-7.90773e-07;0.024201;1.5;0.5;0.004
0.099032;0.443176;-2.62154e-07;0.0222911;1.5;0.5;0.004
0.100032;0.445532;1.02704e-06;0.0196826;1.5;0.5;0.004
0.101032;0.451644;2.32764e-06;0.0251488;1.5;0.5;0.004
0.102031;0.459971;3.54075e-06;0.0314212;1.5;0.5;0.004
0.103031;0.460075;3.01232e-06;0.0295822;1.5;0.5;0.004
0.104030;0.452468;1.74082e-06;0.0283331;1.5;0.5;0.004
0.105030;0.446409;3.02547e-07;0.0312773;1.5;0.5;0.004
0.106030;0.442899;6.96418e-07;0.0276304;1.5;0.5;0.004
0.107029;0.442926;3.05073e-07;0.0196469;1.5;0.5;0.004
0.108029;0.447399;-2.30171e-07;0.0214107;1.5;0.5;0.004
0.109028;0.451825;-1.36603e-06;0.0284049;1.5;0.5;0.004
0.110027;0.449769;-2.90416e-06;0.0284274;1.5;0.5;0.004
0.111027;0.440068;-5.55091e-06;0.0282545;1.5;0.5;0.004
0.112025;0.430519;-6.00796e-06;0.0333648;1.5;0.5;0.004
0.113025;0.426883;-4.09651e-06;0.0337853;1.5;0.5;0.004
0.114024;0.428817;-2.68796e-06;0.0262272;1.5;0.5;0.004
0.115023;0.435552;-2.51324e-06;0.0227677;1.5;0.5;0.004
0.116022;0.444693;-1.13095e-06;0.0266654;1.5;0.5;0.004
0.117020;0.449769;-7.82738e-07;0.0266392;1.5;0.5;0.004
0.118019;0.444955;-1.57721e-06;0.0234161;1.5;0.5;0.004
0.119018;0.433854;-2.01117e-06;0.0274834;1.5;0.5;0.004
0.120016;0.425259;-2.64674e-06;0.0343214;1.5;0.5;0.004
0.121014;0.421702;-2.61625e-06;0.0319137;1.5;0.5;0.004
0.122013;0.422989;-5.93792e-06;0.0238424;1.5;0.5;0.004
0.123011;0.429883;-8.04009e-06;0.0225004;1.5;0.5;0.004
0.124009;0.439853;-8.70003e-06;0.0249726;1.5;0.5;0.004
0.125006;0.445835;-7.50799e-06;0.0207387;1.5;0.5;0.004
0.126003;0.441871;-1.00892e-05;0.0161095;1.5;0.5;0.004
0.127037;0.43149;-1.54186e-05;0.023446;1.5;0.5;0.004
0.128033;0.423437;-1.287e-05;0.0332847;1.5;0.5;0.004
0.129030;0.418636;-2.92917e-06;0.0312155;1.5;0.5;0.004
0.130026;0.417098;4.9046e-06;0.0224712;1.5;0.5;0.004
0.131022;0.420056;6.80391e-06;0.0227898;1.5;0.5;0.004
0.132018;0.425501;1.02483e-05;0.0293227;1.5;0.5;0.004
0.133014;0.427563;1.73031e-05;0.0280781;1.5;0.5;0.004
0.134010;0.421587;2.03681e-05;0.020862;1.5;0.5;0.004
0.135006;0.411037;2.22541e-05;0.0211386;1.5;0.5;0.004
0.136002;0.403677;2.19317e-05;0.0276;1.5;0.5;0.004
0.137035;0.400901;1.74216e-05;0.0282648;1.5;0.5;0.004
0.138031;0.401634;9.58111e-06;0.0217318;1.5;0.5;0.004
0.139027;0.405262;-4.16167e-06;0.0211751;1.5;0.5;0.004
0.140023;0.408861;-1.47033e-05;0.0290867;1.5;0.5;0.004
0.141019;0.410503;-2.31491e-05;0.0298463;1.5;0.5;0.004
0.142016;0.40848;-3.4354e-05;0.0194118;1.5;0.5;0.004
0.143012;0.403477;-5.38377e-05;0.0127057;1.5;0.5;0.004
0.144008;0.397975;-6.15266e-05;0.0198176;1.5;0.5;0.004
0.145004;0.392809;-5.23649e-05;0.0297541;1.5;0.5;0.004
0.146001;0.388145;-2.99909e-05;0.028308;1.5;0.5;0.004
0.147034;0.387235;-1.68038e-05;0.0175478;1.5;0.5;0.004
0.148030;0.390157;-1.5152e-05;0.0158315;1.5;0.5;0.004
0.149026;0.392625;-9.1806e-06;0.0258117;1.5;0.5;0.004
0.150022;0.392753;2.60192e-05;0.0304195;1.5;0.5;0.004
0.151018;0.391208;5.79448e-05;0.0224131;1.5;0.5;0.004
0.152014;0.389299;6.04149e-05;0.0138169;1.5;0.5;0.004
0.153010;0.387034;6.68772e-05;0.0166946;1.5;0.5;0.004
0.154005;0.382158;0.000108211;0.0252787;1.5;0.5;0.004
0.155001;0.376598;0.000148526;0.0253304;1.5;0.5;0.004
0.156033;0.376802;0.000168252;0.014498;1.5;0.5;0.004
0.157029;0.383539;0.000168213;0.00972549;1.5;0.5;0.004
0.158024;0.388178;0.000195279;0.0209044;1.5;0.5;0.004
0.159020;0.385767;0.000231053;0.0309406;1.5;0.5;0.004
0.160015;0.381744;0.000170589;0.0240467;1.5;0.5;0.004
0.161011;0.381313;4.93573e-05;0.00964102;1.5;0.5;0.004
0.162006;0.382551;0.000163566;0.00523917;1.5;0.5;0.004
0.163001;0.379094;0.000497477;0.0139893;1.5;0.5;0.004
0.164033;0.369578;0.000745318;0.0229404;1.5;0.5;0.004
0.165028;0.364199;0.000792412;0.0198238;1.5;0.5;0.004
0.166022;0.370074;0.000778936;0.00922765;1.5;0.5;0.004
0.167017;0.381303;0.00102446;0.00590328;1.5;0.5;0.004
0.168012;0.383593;0.00146599;0.0150454;1.5;0.5;0.004
0.169006;0.373493;0.00178756;0.0225369;1.5;0.5;0.004
0.170001;0.362451;0.00167067;0.017972;1.5;0.5;0.004
0.171032;0.35956;0.00136599;0.00821811;1.5;0.5;0.004
0.172026;0.361112;0.00183628;0.00615115;1.5;0.5;0.004
0.173020;0.357611;0.00300996;0.0135796;1.5;0.5;0.004
0.174015;0.348944;0.00366576;0.0223635;1.5;0.5;0.004
0.175009;0.343703;0.0033567;0.0246336;1.5;0.5;0.004
0.176003;0.347421;0.00260379;0.020469;1.5;0.5;0.004
0.177034;0.357078;0.00226604;0.0151994;1.5;0.5;0.004
0.178025;0.363854;0.0028032;0.0145303;1.5;0.5;0.004
0.179016;0.363565;0.00325883;0.017103;1.5;0.5;0.004
0.180036;0.358716;0.00248031;0.0180121;1.5;0.5;0.004
0.181017;0.355275;0.000811488;0.0156733;1.5;0.5;0.004
0.182004;0.357072;-0.000347753;0.0124713;1.5;0.5;0.004
0.183022;0.365369;-2.11748e-05;0.0105123;1.5;0.5;0.004
0.184036;0.376407;0.000903288;0.0107464;1.5;0.5;0.004
0.185017;0.385369;0.000591483;0.0127274;1.5;0.5;0.004
0.186006;0.39083;-0.0010933;0.0157246;1.5;0.5;0.004
0.187001;0.393068;-0.00241027;0.0176164;1.5;0.5;0.004
0.188032;0.393706;-0.00216075;0.0163368;1.5;0.5;0.004
0.189021;0.394014;-0.00108932;0.0136209;1.5;0.5;0.004
0.190028;0.393148;-0.000517605;0.0139671;1.5;0.5;0.004
0.191002;0.389105;-0.00147695;0.0178057;1.5;0.5;0.004
0.192025;0.381542;-0.00256373;0.0199321;1.5;0.5;0.004
0.193019;0.374643;-0.00179965;0.0173395;1.5;0.5;0.004
0.194013;0.371957;1.27488e-05;0.0132182;1.5;0.5;0.004
0.195006;0.374094;0.000920465;0.0119611;1.5;0.5;0.004
0.196000;0.378221;-9.54472e-05;0.0146118;1.5;0.5;0.004
0.197031;0.381293;-0.00165794;0.0185381;1.5;0.5;0.004
0.198025;0.382948;-0.00194665;0.0207988;1.5;0.5;0.004
0.199019;0.385204;-0.00136486;0.0207372;1.5;0.5;0.004
0.200013;0.387477;-0.00118881;0.0194238;1.5;0.5;0.004
0.201008;0.388;-0.00256676;0.0186306;1.5;0.5;0.004
0.202002;0.385998;-0.00261496;0.0201692;1.5;0.5;0.004
0.203033;0.382484;-0.00234587;0.0213924;1.5;0.5;0.004
0.204027;0.38274;-0.00238402;0.0204002;1.5;0.5;0.004
0.205021;0.387952;-0.00187104;0.0192544;1.5;0.5;0.004
0.206016;0.393843;-0.00262642;0.0172062;1.5;0.5;0.004
0.207010;0.400774;-0.0048145;0.0148935;1.5;0.5;0.004
0.208004;0.408638;-0.00671125;0.0144775;1.5;0.5;0.004
0.209036;0.414732;-0.00743641;0.0136471;1.5;0.5;0.004
0.210030;0.416184;-0.00622745;0.0124838;1.5;0.5;0.004
0.211024;0.413008;-0.00488679;0.0129067;1.5;0.5;0.004
0.212018;0.405768;-0.00343026;0.0168179;1.5;0.5;0.004
0.213012;0.395749;-0.00167125;0.0223905;1.5;0.5;0.004
0.214005;0.384729;-0.000449166;0.0263163;1.5;0.5;0.004
0.215035;0.374404;-0.000373483;0.0255042;1.5;0.5;0.004
0.216029;0.369009;-0.00168313;0.0209763;1.5;0.5;0.004
0.217022;0.371812;-0.00499322;0.0156616;1.5;0.5;0.004
0.218015;0.382485;-0.00969694;0.0117088;1.5;0.5;0.004
0.219009;0.395775;-0.0137873;0.0106842;1.5;0.5;0.004
0.220001;0.405775;-0.01574;0.0131384;1.5;0.5;0.004
0.221032;0.409839;-0.0157238;0.0152977;1.5;0.5;0.004
0.222025;0.40937;-0.0148863;0.0148425;1.5;0.5;0.004
0.223019;0.407206;-0.0143831;0.0158149;1.5;0.5;0.004
0.224012;0.402448;-0.013253;0.0201232;1.5;0.5;0.004
0.225006;0.393138;-0.0116953;0.0255768;1.5;0.5;0.004
0.226037;0.379899;-0.00878155;0.0258335;1.5;0.5;0.004
0.227029;0.369866;-0.00706384;0.0217266;1.5;0.5;0.004
0.228021;0.366342;-0.00657916;0.0171249;1.5;0.5;0.004
0.229002;0.370023;-0.00666508;0.014775;1.5;0.5;0.004
0.230017;0.379168;-0.00623204;0.0155324;1.5;0.5;0.004
0.231004;0.390325;-0.00515827;0.0173065;1.5;0.5;0.004
0.232033;0.400758;-0.00378924;0.0186732;1.5;0.5;0.004
0.233027;0.408251;-0.00290571;0.0194486;1.5;0.5;0.004
0.234019;0.412911;-0.00275713;0.0207646;1.5;0.5;0.004
0.235013;0.413041;-0.00289031;0.0228139;1.5;0.5;0.004
0.236006;0.406958;-0.00231525;0.0235405;1.5;0.5;0.004
0.237036;0.396391;-0.00162442;0.0225126;1.5;0.5;0.004
0.238029;0.386852;-0.00189301;0.0217917;1.5;0.5;0.004
0.239023;0.380742;-0.00293814;0.0223171;1.5;0.5;0.004
0.240016;0.379151;-0.00364921;0.0231011;1.5;0.5;0.004
0.241009;0.383527;-0.0034574;0.023416;1.5;0.5;0.004
0.242003;0.394823;-0.00315754;0.0238942;1.5;0.5;0.004
0.243033;0.410173;-0.00366019;0.0258364;1.5;0.5;0.004
0.244026;0.421092;-0.00433851;0.0279599;1.5;0.5;0.004
0.245019;0.42391;-0.00421092;0.0277632;1.5;0.5;0.004
0.246012;0.42119;-0.00289689;0.0251492;1.5;0.5;0.004
0.247005;0.41602;-0.000864298;0.0233383;1.5;0.5;0.004
0.248034;0.407961;0.00108029;0.0247874;1.5;0.5;0.004
0.249026;0.396589;0.00198417;0.0286778;1.5;0.5;0.004
0.250019;0.383025;0.00210514;0.0319619;1.5;0.5;0.004
0.251010;0.371728;0.00208263;0.0316801;1.5;0.5;0.004
0.252034;0.367929;0.00212912;0.0275469;1.5;0.5;0.004
0.253005;0.373958;0.00237321;0.0223951;1.5;0.5;0.004
0.254007;0.387279;0.00279618;0.0180053;1.5;0.5;0.004
0.255007;0.401913;0.0028512;0.015851;1.5;0.5;0.004
0.256034;0.412334;0.00196686;0.0170143;1.5;0.5;0.004
0.257003;0.416746;0.000907152;0.0209062;1.5;0.5;0.004
0.258018;0.418203;0.000110706;0.0274686;1.5;0.5;0.004
0.259001;0.416692;0.00101921;0.034483;1.5;0.5;0.004
0.260026;0.409403;0.00221261;0.0370963;1.5;0.5;0.004
0.261017;0.397682;0.00251344;0.033816;1.5;0.5;0.004
0.262008;0.385408;0.000885177;0.0276723;1.5;0.5;0.004
0.263036;0.373424;-0.00164355;0.021713;1.5;0.5;0.004
0.264028;0.364287;-0.00389488;0.0179556;1.5;0.5;0.004
0.265017;0.359968;-0.00502448;0.0165651;1.5;0.5;0.004
0.266008;0.360521;-0.004618;0.0176219;1.5;0.5;0.004
0.267001;0.363445;-0.00325972;0.019631;1.5;0.5;0.004
0.268029;0.367763;-0.00208385;0.0200322;1.5;0.5;0.004
0.269022;0.373959;-0.00187265;0.0186543;1.5;0.5;0.004
0.270015;0.382399;-0.00208785;0.0175501;1.5;0.5;0.004
0.271007;0.391741;-0.00150929;0.0187815;1.5;0.5;0.004
0.272037;0.400582;0.000863346;0.0221762;1.5;0.5;0.004
0.273029;0.408098;0.00388422;0.0254854;1.5;0.5;0.004
0.274022;0.415226;0.00478352;0.0272754;1.5;0.5;0.004
0.275014;0.422387;0.00291246;0.0291069;1.5;0.5;0.004
0.276007;0.428354;0.000634761;0.0317881;1.5;0.5;0.004
0.277036;0.432081;4.82814e-05;0.0342055;1.5;0.5;0.004
0.278028;0.433211;0.00195844;0.0346799;1.5;0.5;0.004
0.279020;0.434239;0.00364537;0.0321527;1.5;0.5;0.004
0.280013;0.436326;0.00434391;0.0293831;1.5;0.5;0.004
0.281005;0.437296;0.0040331;0.0296631;1.5;0.5;0.004
0.282034;0.433127;0.00304906;0.0324244;1.5;0.5;0.004
0.283027;0.423412;0.00187817;0.0325299;1.5;0.5;0.004
0.284019;0.413687;0.00125556;0.0286928;1.5;0.5;0.004
0.285011;0.407277;0.00126698;0.025769;1.5;0.5;0.004
0.286003;0.402895;0.000959566;0.0273448;1.5;0.5;0.004
0.287032;0.397713;-0.000157594;0.0306368;1.5;0.5;0.004
0.288023;0.391992;-0.000789322;0.0301685;1.5;0.5;0.004
0.289010;0.388355;0.000348505;0.0259507;1.5;0.5;0.004
0.290018;0.388429;0.00240571;0.0235946;1.5;0.5;0.004
0.291028;0.389318;0.00334618;0.0250017;1.5;0.5;0.004
0.292012;0.387828;0.00264874;0.0272422;1.5;0.5;0.004
0.293023;0.38526;0.00148517;0.0275693;1.5;0.5;0.004
0.294002;0.384798;0.000779105;0.0252607;1.5;0.5;0.004
0.295027;0.386042;-0.000281898;0.0218318;1.5;0.5;0.004
0.296018;0.386257;-0.00156704;0.0205368;1.5;0.5;0.004
0.297010;0.384939;-0.00264978;0.0228165;1.5;0.5;0.004
0.298003;0.383718;-0.00345348;0.0257228;1.5;0.5;0.004
0.299032;0.383777;-0.00389985;0.0261155;1.5;0.5;0.004
0.300024;0.386208;-0.00437845;0.0243042;1.5;0.5;0.004
0.301017;0.39005;-0.00486645;0.0230182;1.5;0.5;0.004
0.302009;0.392353;-0.00427853;0.0237357;1.5;0.5;0.004
0.303001;0.39123;-0.0026767;0.0247988;1.5;0.5;0.004
0.304031;0.388405;-0.00227134;0.0251379;1.5;0.5;0.004
0.305023;0.389016;-0.00390233;0.0245523;1.5;0.5;0.004
0.306015;0.395215;-0.00634321;0.0224586;1.5;0.5;0.004
0.307007;0.406566;-0.00739684;0.0209623;1.5;0.5;0.004
0.308036;0.420673;-0.00576619;0.0233843;1.5;0.5;0.004
0.309029;0.433932;-0.00309988;0.0279022;1.5;0.5;0.004
0.310021;0.444622;-0.00178122;0.0292994;1.5;0.5;0.004
0.311013;0.451192;-0.00101193;0.0278825;1.5;0.5;0.004
0.312006;0.453759;-0.00029212;0.0272251;1.5;0.5;0.004
0.313034;0.45307;0.000466625;0.0282799;1.5;0.5;0.004
0.314027;0.449642;0.000830937;0.0284423;1.5;0.5;0.004
0.315019;0.443445;0.00127478;0.0263829;1.5;0.5;0.004
0.316011;0.434611;0.00239982;0.0239528;1.5;0.5;0.004
0.317003;0.424522;0.00434082;0.0233065;1.5;0.5;0.004
0.318031;0.414719;0.00715115;0.024473;1.5;0.5;0.004
0.319023;0.407386;0.00987842;0.0248502;1.5;0.5;0.004
0.320015;0.402162;0.0115647;0.0227953;1.5;0.5;0.004
0.321007;0.399827;0.0124235;0.0194022;1.5;0.5;0.004
0.322036;0.401871;0.0134016;0.0169304;1.5;0.5;0.004
0.323028;0.407728;0.014656;0.0172169;1.5;0.5;0.004
0.324019;0.415055;0.0157151;0.0194256;1.5;0.5;0.004
0.325011;0.422004;0.0157752;0.0220738;1.5;0.5;0.004
0.326000;0.428075;0.0146591;0.023828;1.5;0.5;0.004
0.327023;0.434487;0.0129229;0.0246189;1.5;0.5;0.004
0.328013;0.442408;0.0115257;0.0258435;1.5;0.5;0.004
0.329004;0.451166;0.0103525;0.0281279;1.5;0.5;0.004
0.330032;0.45834;0.00844929;0.0324391;1.5;0.5;0.004
0.331024;0.462777;0.00683448;0.0364218;1.5;0.5;0.004
0.332014;0.4635;0.00518441;0.0372505;1.5;0.5;0.004
0.333030;0.463178;0.00319566;0.0340107;1.5;0.5;0.004
0.334002;0.46434;0.00130715;0.0301842;1.5;0.5;0.004
0.335028;0.466919;0.00126473;0.0295302;1.5;0.5;0.004
0.336020;0.465287;0.00146773;0.0345982;1.5;0.5;0.004
0.337012;0.455812;-0.000665518;0.03792;1.5;0.5;0.004
0.338003;0.441474;-0.0030212;0.03653;1.5;0.5;0.004
0.339031;0.426905;-0.00475315;0.0324006;1.5;0.5;0.004
0.340023;0.416245;-0.00487741;0.0293482;1.5;0.5;0.004
0.341015;0.410067;-0.00476206;0.0284491;1.5;0.5;0.004
0.342006;0.406687;-0.00486473;0.0275355;1.5;0.5;0.004
0.343035;0.405033;-0.00407817;0.0271149;1.5;0.5;0.004
0.344026;0.407175;-0.00203749;0.0263932;1.5;0.5;0.004
0.345018;0.414004;-0.000741652;0.0258337;1.5;0.5;0.004
0.346009;0.423662;-0.00182911;0.0253688;1.5;0.5;0.004
0.347001;0.433285;-0.00408444;0.0253549;1.5;0.5;0.004
0.348029;0.441138;-0.00509932;0.0260052;1.5;0.5;0.004
0.349021;0.445813;-0.0046756;0.0264769;1.5;0.5;0.004
0.350013;0.447795;-0.00482209;0.0269661;1.5;0.5;0.004
0.351004;0.448626;-0.00585288;0.0283531;1.5;0.5;0.004
0.352033;0.44971;-0.00644035;0.0297081;1.5;0.5;0.004
0.353024;0.451251;-0.005429;0.0294278;1.5;0.5;0.004
0.354016;0.45342;-0.00303826;0.0290543;1.5;0.5;0.004
0.355008;0.455845;-0.000446733;0.0302735;1.5;0.5;0.004
0.356036;0.456901;-5.82866e-05;0.0323416;1.5;0.5;0.004
0.357028;0.454348;-0.00224258;0.0336894;1.5;0.5;0.004
0.358020;0.447948;-0.0041598;0.0335005;1.5;0.5;0.004
0.359011;0.440186;-0.00389225;0.032111;1.5;0.5;0.004
0.360003;0.433609;-0.00170809;0.0299722;1.5;0.5;0.004
0.361031;0.429636;0.000450449;0.0281138;1.5;0.5;0.004
0.362023;0.427911;0.00140391;0.0281123;1.5;0.5;0.004
0.363014;0.425977;0.00180277;0.0294965;1.5;0.5;0.004
0.364006;0.423121;0.00240341;0.0307492;1.5;0.5;0.004
0.365034;0.419059;0.00359442;0.0306848;1.5;0.5;0.004
0.366025;0.414495;0.00471369;0.0301389;1.5;0.5;0.004
0.367017;0.410625;0.00549417;0.0291398;1.5;0.5;0.004
0.368008;0.408937;0.00593427;0.0273026;1.5;0.5;0.004
0.369036;0.408647;0.00490397;0.0253243;1.5;0.5;0.004
