time [s];velx [m/s];vely [m/s];velz [m/s];posx [m];posy [m];posz [m]
0.000000;0;0;0;2.5;0.25;0.02
0.001076;6.43674e-09;-2.02063e-09;-0.068675;2.5;0.25;0.02
0.002031;7.13062e-09;-5.66123e-07;-0.0618649;2.5;0.25;0.02
0.003105;-1.33604e-09;-4.86599e-05;-0.0325669;2.5;0.25;0.02
0.004060;3.7083e-10;-0.000477961;-0.0348822;2.5;0.25;0.02
0.005014;2.60619e-09;-0.00209042;-0.04187;2.5;0.25;0.02
0.006089;7.4834e-08;-0.00546142;-0.0245439;2.5;0.25;0.02
0.007045;7.37621e-07;-0.00765314;-0.0061098;2.5;0.25;0.02
0.008119;8.38556e-06;-0.00743362;-0.00482031;2.5;0.25;0.02
0.009074;5.37451e-05;-0.00774257;-0.00901302;2.5;0.25;0.02
0.010030;0.000230939;-0.0110412;-0.00740505;2.5;0.25;0.02
0.011102;0.000815578;-0.0145681;-0.00595677;2.5;0.25;0.02
0.012057;0.00183729;-0.01359;-0.009041;2.5;0.25;0.02
0.013012;0.00316059;-0.0114094;-0.00995669;2.5;0.25;0.02
0.014085;0.00435703;-0.0125374;-0.005885;2.5;0.25;0.02
0.015039;0.00481392;-0.0142641;-0.00489073;2.5;0.25;0.02
0.016113;0.00523775;-0.0128962;-0.00924747;2.5;0.25;0.02
0.017066;0.00627352;-0.0107839;-0.0114482;2.5;0.25;0.02
0.018018;0.0077902;-0.00957154;-0.0101172;2.5;0.25;0.02
0.019091;0.00918743;-0.00791223;-0.00968689;2.5;0.25;0.02
0.020045;0.00997231;-0.00605682;-0.0115576;2.5;0.25;0.02
0.021117;0.0109212;-0.00489343;-0.0148552;2.5;0.25;0.02
0.022070;0.0120699;-0.00449553;-0.0212845;2.5;0.25;0.02
0.023022;0.0134679;-0.00420607;-0.0315826;2.5;0.25;0.02
0.024093;0.0153819;-0.00473221;-0.0422044;2.5;0.25;0.02
0.025045;0.0173307;-0.00628511;-0.0461998;2.5;0.25;0.02
0.026116;0.0197704;-0.00843726;-0.0406356;2.5;0.25;0.02
0.027068;0.022556;-0.00998677;-0.0234934;2.5;0.25;0.02
0.028019;0.0260533;-0.0105933;0.000913361;2.5;0.25;0.02
0.029089;0.0300563;-0.00973575;0.0217524;2.5;0.25;0.02
0.030040;0.0331262;-0.00815299;0.0262991;2.5;0.25;0.02
0.031109;0.0363979;-0.00646652;0.0213144;2.5;0.25;0.02
0.032060;0.0392708;-0.00547318;0.0160824;2.5;0.25;0.02
0.033010;0.0417751;-0.00472813;0.0133366;2.5;0.25;0.02
0.034078;0.0444565;-0.00347323;0.0106683;2.5;0.25;0.02
0.035028;0.0472009;-0.00171824;0.00373486;2.5;0.25;0.02
0.036095;0.0502356;0.000475632;-0.00906021;2.5;0.25;0.02
0.037044;0.0526278;0.00215088;-0.0172193;2.5;0.25;0.02
0.038111;0.0557216;0.00370571;-0.0175127;2.5;0.25;0.02
0.039060;0.0589177;0.00487979;-0.014361;2.5;0.25;0.02
0.040008;0.0618678;0.00562292;-0.0121711;2.5;0.25;0.02
0.041074;0.0650178;0.00579961;-0.00850694;2.5;0.25;0.02
0.042021;0.0682801;0.00559211;-0.00198314;2.5;0.25;0.02
0.043086;0.0720632;0.00526997;0.00618786;2.5;0.25;0.02
0.044033;0.0750106;0.00501365;0.0109969;2.5;0.25;0.02
0.045097;0.0782729;0.0045505;0.0129038;2.5;0.25;0.02
0.046043;0.0812964;0.00371865;0.0126475;2.5;0.25;0.02
0.047107;0.0843964;0.00247966;0.0122737;2.5;0.25;0.02
0.048052;0.086925;0.00158745;0.0133532;2.5;0.25;0.02
0.049115;0.0896651;0.00118887;0.0167195;2.5;0.25;0.02
0.050060;0.0916054;0.00155268;0.0214464;2.5;0.25;0.02
0.051005;0.092953;0.00262404;0.0267807;2.5;0.25;0.02
0.052068;0.0941418;0.00410037;0.0303606;2.5;0.25;0.02
0.053013;0.094862;0.00499288;0.0282401;2.5;0.25;0.02
0.054075;0.0951821;0.00535581;0.0188264;2.5;0.25;0.02
0.055020;0.0955299;0.00519243;0.00652704;2.5;0.25;0.02
0.056082;0.0962753;0.00450255;-0.00634091;2.5;0.25;0.02
0.057028;0.0968941;0.00375689;-0.0123238;2.5;0.25;0.02
0.058092;0.0975001;0.00313021;-0.011171;2.5;0.25;0.02
0.059037;0.0981044;0.00244038;-0.00572473;2.5;0.25;0.02
0.060100;0.0985059;0.0010356;0.000530799;2.5;0.25;0.02
0.061045;0.0985489;-0.000575588;0.00382709;2.5;0.25;0.02
0.062108;0.0987061;-0.00239447;0.00528537;2.5;0.25;0.02
0.063052;0.0988952;-0.00389121;0.00593599;2.5;0.25;0.02
0.064115;0.0988179;-0.00525169;0.00673604;2.5;0.25;0.02
0.065059;0.0987168;-0.00613466;0.00726653;2.5;0.25;0.02
0.066003;0.0987377;-0.00684905;0.00736028;2.5;0.25;0.02
0.067066;0.0985483;-0.00736341;0.00687713;2.5;0.25;0.02
0.068012;0.0981845;-0.0074316;0.00568863;2.5;0.25;0.02
0.069076;0.0978813;-0.00734577;0.00316988;2.5;0.25;0.02
0.070021;0.0975139;-0.00731055;-3.20641e-05;2.5;0.25;0.02
0.071084;0.0967959;-0.00711929;-0.00423629;2.5;0.25;0.02
0.072029;0.0962228;-0.00676131;-0.00791777;2.5;0.25;0.02
0.073092;0.0957254;-0.00629272;-0.011455;2.5;0.25;0.02
0.074036;0.0951602;-0.00580773;-0.0142979;2.5;0.25;0.02
0.075099;0.0946109;-0.00531871;-0.0179047;2.5;0.25;0.02
0.076043;0.0944469;-0.00526742;-0.021474;2.5;0.25;0.02
0.077105;0.0943853;-0.00572451;-0.0250494;2.5;0.25;0.02
0.078049;0.0944375;-0.00641723;-0.027035;2.5;0.25;0.02
0.079111;0.0949499;-0.00749681;-0.0269435;2.5;0.25;0.02
0.080054;0.0956562;-0.00869839;-0.0240737;2.5;0.25;0.02
0.081116;0.0963835;-0.0101132;-0.017996;2.5;0.25;0.02
0.082059;0.0970645;-0.011367;-0.011432;2.5;0.25;0.02
0.083003;0.0977608;-0.0126202;-0.00536286;2.5;0.25;0.02
0.084064;0.0982733;-0.0138244;-0.000737958;2.5;0.25;0.02
0.085008;0.0986174;-0.0145385;0.000647732;2.5;0.25;0.02
0.086069;0.0992114;-0.0149572;-0.000438031;2.5;0.25;0.02
0.087012;0.0997821;-0.0150164;-0.0026939;2.5;0.25;0.02
0.088073;0.10033;-0.0147978;-0.00583181;2.5;0.25;0.02
0.089016;0.100934;-0.014528;-0.00900485;2.5;0.25;0.02
0.090077;0.101768;-0.0142302;-0.0130272;2.5;0.25;0.02
0.091019;0.102551;-0.0138903;-0.01682;2.5;0.25;0.02
0.092079;0.10369;-0.013443;-0.0205183;2.5;0.25;0.02
0.093020;0.105018;-0.0130968;-0.0223303;2.5;0.25;0.02
0.094079;0.106608;-0.012847;-0.0223453;2.5;0.25;0.02
0.095020;0.108066;-0.0128618;-0.0212122;2.5;0.25;0.02
0.096076;0.109907;-0.0132446;-0.0195622;2.5;0.25;0.02
0.097013;0.111643;-0.0137902;-0.0180505;2.5;0.25;0.02
0.098067;0.113633;-0.0144427;-0.0161782;2.5;0.25;0.02
0.099002;0.115564;-0.0150211;-0.0140131;2.5;0.25;0.02
0.100055;0.117881;-0.015567;-0.0105913;2.5;0.25;0.02
0.101107;0.120145;-0.0157672;-0.00616466;2.5;0.25;0.02
0.102044;0.122139;-0.015572;-0.0017851;2.5;0.25;0.02
0.103098;0.124387;-0.0149394;0.00306269;2.5;0.25;0.02
0.104035;0.126237;-0.0139867;0.00657584;2.5;0.25;0.02
0.105091;0.128142;-0.012565;0.00858814;2.5;0.25;0.02
0.106030;0.129822;-0.0111696;0.00814409;2.5;0.25;0.02
0.107087;0.13171;-0.00955057;0.00529003;2.5;0.25;0.02
0.108026;0.133384;-0.00809229;0.00126724;2.5;0.25;0.02
0.109081;0.135417;-0.00655528;-0.00371937;2.5;0.25;0.02
0.110019;0.137371;-0.00539805;-0.00732204;2.5;0.25;0.02
0.111074;0.139588;-0.0044108;-0.00948638;2.5;0.25;0.02
0.112011;0.141556;-0.00391204;-0.00960499;2.5;0.25;0.02
0.113066;0.14378;-0.00386342;-0.00797526;2.5;0.25;0.02
0.114004;0.145666;-0.00422747;-0.00535066;2.5;0.25;0.02
0.115059;0.147604;-0.00498856;-0.00164229;2.5;0.25;0.02
0.116114;0.149346;-0.00602141;0.00236692;2.5;0.25;0.02
0.117051;0.150656;-0.00704104;0.00580175;2.5;0.25;0.02
0.118105;0.151808;-0.00817148;0.00892495;2.5;0.25;0.02
0.119041;0.152635;-0.00912486;0.0106113;2.5;0.25;0.02
0.120095;0.153425;-0.0101094;0.0112191;2.5;0.25;0.02
0.121031;0.153998;-0.0108579;0.0108518;2.5;0.25;0.02
0.122083;0.154527;-0.0115355;0.00979922;2.5;0.25;0.02
0.123017;0.154902;-0.0119884;0.00863179;2.5;0.25;0.02
0.124067;0.155153;-0.0123062;0.00732287;2.5;0.25;0.02
0.125001;0.155219;-0.0124349;0.00621783;2.5;0.25;0.02
0.126052;0.155176;-0.0124811;0.00506192;2.5;0.25;0.02
0.127104;0.155003;-0.0124847;0.00402641;2.5;0.25;0.02
0.128041;0.154721;-0.0125006;0.0031017;2.5;0.25;0.02
0.129096;0.154311;-0.0126203;0.00184316;2.5;0.25;0.02
0.130034;0.153895;-0.0128752;0.000472167;2.5;0.25;0.02
0.131089;0.153375;-0.0133311;-0.00117955;2.5;0.25;0.02
0.132027;0.152929;-0.0138548;-0.00243826;2.5;0.25;0.02
0.133082;0.152512;-0.0145233;-0.00322423;2.5;0.25;0.02
0.134020;0.15215;-0.0151253;-0.00315878;2.5;0.25;0.02
0.135075;0.151667;-0.0157444;-0.00226303;2.5;0.25;0.02
0.136013;0.15122;-0.0161997;-0.000994769;2.5;0.25;0.02
0.137068;0.150782;-0.0165662;0.000442886;2.5;0.25;0.02
0.138005;0.15038;-0.0167515;0.00125675;2.5;0.25;0.02
0.139058;0.14976;-0.0168194;0.00135889;2.5;0.25;0.02
0.140111;0.148979;-0.0167635;0.000591791;2.5;0.25;0.02
0.141047;0.148281;-0.0166321;-0.000808013;2.5;0.25;0.02
0.142100;0.147521;-0.0164211;-0.00317756;2.5;0.25;0.02
0.143037;0.146767;-0.0162006;-0.00577389;2.5;0.25;0.02
0.144091;0.14581;-0.0159574;-0.0087545;2.5;0.25;0.02
0.145028;0.144961;-0.0158014;-0.0110704;2.5;0.25;0.02
0.146082;0.144054;-0.0157548;-0.0130223;2.5;0.25;0.02
0.147019;0.143246;-0.0158726;-0.0140463;2.5;0.25;0.02
0.148073;0.142365;-0.0162328;-0.0144043;2.5;0.25;0.02
0.149010;0.1417;-0.0167755;-0.0141732;2.5;0.25;0.02
0.150064;0.141126;-0.0176196;-0.0135429;2.5;0.25;0.02
0.151001;0.140762;-0.0185491;-0.0128428;2.5;0.25;0.02
0.152056;0.140543;-0.0197557;-0.0121114;2.5;0.25;0.02
0.153111;0.14056;-0.0210776;-0.0116385;2.5;0.25;0.02
0.154049;0.140776;-0.0223121;-0.0115156;2.5;0.25;0.02
0.155103;0.141212;-0.0237201;-0.0116913;2.5;0.25;0.02
0.156039;0.141717;-0.0249251;-0.0120744;2.5;0.25;0.02
0.157093;0.14236;-0.0261609;-0.0126829;2.5;0.25;0.02
0.158030;0.142974;-0.0271203;-0.0132916;2.5;0.25;0.02
0.159085;0.143656;-0.0279983;-0.0139568;2.5;0.25;0.02
0.160023;0.144199;-0.0285727;-0.0144856;2.5;0.25;0.02
0.161077;0.144779;-0.0290152;-0.0149868;2.5;0.25;0.02
0.162014;0.1453;-0.0292468;-0.0153302;2.5;0.25;0.02
0.163068;0.145771;-0.0292984;-0.0155423;2.5;0.25;0.02
0.164005;0.145982;-0.0291727;-0.0154683;2.5;0.25;0.02
0.165060;0.146138;-0.0289385;-0.0150094;2.5;0.25;0.02
0.166114;0.146426;-0.028673;-0.0142707;2.5;0.25;0.02
0.167051;0.146704;-0.0283841;-0.0134713;2.5;0.25;0.02
0.168104;0.14688;-0.0279865;-0.0122376;2.5;0.25;0.02
0.169040;0.147075;-0.0276194;-0.0107211;2.5;0.25;0.02
0.170094;0.147598;-0.0272414;-0.00888433;2.5;0.25;0.02
0.171030;0.148204;-0.0269292;-0.00756717;2.5;0.25;0.02
0.172084;0.148761;-0.0265908;-0.00643499;2.5;0.25;0.02
0.173020;0.149229;-0.0262998;-0.00541773;2.5;0.25;0.02
0.174072;0.149978;-0.0259589;-0.00412459;2.5;0.25;0.02
0.175008;0.150763;-0.025616;-0.00293309;2.5;0.25;0.02
0.176061;0.151512;-0.0251926;-0.00150293;2.5;0.25;0.02
0.177114;0.152114;-0.0247543;0.000131847;2.5;0.25;0.02
0.178050;0.152671;-0.0243353;0.00164193;2.5;0.25;0.02
0.179102;0.153333;-0.0237965;0.00317346;2.5;0.25;0.02
0.180037;0.153841;-0.0232519;0.00428621;2.5;0.25;0.02
0.181089;0.154223;-0.0225816;0.00515783;2.5;0.25;0.02
0.182023;0.154403;-0.0219613;0.00552243;2.5;0.25;0.02
0.183075;0.154523;-0.0212848;0.00553965;2.5;0.25;0.02
0.184009;0.154597;-0.0207287;0.00527235;2.5;0.25;0.02
0.185061;0.154527;-0.0201581;0.00461073;2.5;0.25;0.02
0.186111;0.154163;-0.0196838;0.00370651;2.5;0.25;0.02
0.187044;0.153652;-0.0194036;0.0030128;2.5;0.25;0.02
0.188094;0.153039;-0.0192724;0.00243893;2.5;0.25;0.02
0.189028;0.152492;-0.0193191;0.00190993;2.5;0.25;0.02
0.190079;0.151753;-0.0195795;0.00126201;2.5;0.25;0.02
0.191012;0.150908;-0.0200106;0.000852285;2.5;0.25;0.02
0.192061;0.149824;-0.0206982;0.00073693;2.5;0.25;0.02
0.193111;0.148779;-0.0215503;0.00103817;2.5;0.25;0.02
0.194043;0.147915;-0.0223978;0.00170873;2.5;0.25;0.02
0.195093;0.146885;-0.0234154;0.00287512;2.5;0.25;0.02
0.196027;0.145873;-0.0243545;0.0041827;2.5;0.25;0.02
0.197078;0.144765;-0.0253863;0.00586174;2.5;0.25;0.02
0.198011;0.143908;-0.0262167;0.00730724;2.5;0.25;0.02
0.199061;0.143067;-0.0270325;0.00841192;2.5;0.25;0.02
0.200110;0.142321;-0.0277201;0.00866054;2.5;0.25;0.02
0.201042;0.141752;-0.0281859;0.00814143;2.5;0.25;0.02
0.202094;0.141234;-0.0285314;0.0067384;2.5;0.25;0.02
0.203028;0.140881;-0.0287234;0.00486476;2.5;0.25;0.02
0.204078;0.140621;-0.0288501;0.00238974;2.5;0.25;0.02
0.205012;0.140503;-0.0288876;0.000175659;2.5;0.25;0.02
0.206061;0.140418;-0.028883;-0.00207962;2.5;0.25;0.02
0.207110;0.140286;-0.0288807;-0.00384841;2.5;0.25;0.02
0.208044;0.140106;-0.0288612;-0.00485977;2.5;0.25;0.02
0.209095;0.139842;-0.0287763;-0.00537615;2.5;0.25;0.02
0.210029;0.139517;-0.0286568;-0.00538048;2.5;0.25;0.02
0.211079;0.138972;-0.0285129;-0.00503454;2.5;0.25;0.02
0.212012;0.138301;-0.0283806;-0.00464976;2.5;0.25;0.02
0.213060;0.137335;-0.0282157;-0.00445037;2.5;0.25;0.02
0.214109;0.136131;-0.0280494;-0.0046862;2.5;0.25;0.02
0.215042;0.134898;-0.0279102;-0.00527409;2.5;0.25;0.02
0.216092;0.133444;-0.0277439;-0.00632421;2.5;0.25;0.02
0.217024;0.132145;-0.0275878;-0.00756114;2.5;0.25;0.02
0.218073;0.130674;-0.0274488;-0.00920492;2.5;0.25;0.02
0.219004;0.129427;-0.0273866;-0.0107621;2.5;0.25;0.02
0.220053;0.12821;-0.0273871;-0.0124236;2.5;0.25;0.02
0.221101;0.127214;-0.0274919;-0.0137829;2.5;0.25;0.02
0.222034;0.126509;-0.0277073;-0.0146232;2.5;0.25;0.02
0.223083;0.125996;-0.0280735;-0.0150947;2.5;0.25;0.02
0.224015;0.125831;-0.0284826;-0.0150525;2.5;0.25;0.02
0.225064;0.125951;-0.0290302;-0.0144388;2.5;0.25;0.02
0.226112;0.126376;-0.0296362;-0.0132601;2.5;0.25;0.02
0.227044;0.126989;-0.0301684;-0.0118667;2.5;0.25;0.02
0.228092;0.127845;-0.0307267;-0.0100898;2.5;0.25;0.02
0.229024;0.128671;-0.0311688;-0.00844735;2.5;0.25;0.02
0.230071;0.12965;-0.0315543;-0.00667482;2.5;0.25;0.02
0.231004;0.130553;-0.0317649;-0.00532162;2.5;0.25;0.02
0.232054;0.131566;-0.0318427;-0.00422546;2.5;0.25;0.02
0.233102;0.132546;-0.0317332;-0.00367735;2.5;0.25;0.02
0.234033;0.133354;-0.0314693;-0.00365656;2.5;0.25;0.02
0.235080;0.134125;-0.0310201;-0.0040632;2.5;0.25;0.02
0.236012;0.134686;-0.0305218;-0.00465524;2.5;0.25;0.02
0.237062;0.135271;-0.0298737;-0.00539986;2.5;0.25;0.02
0.238111;0.135885;-0.0291725;-0.00608886;2.5;0.25;0.02
0.239043;0.136461;-0.0285473;-0.00656289;2.5;0.25;0.02
0.240091;0.137156;-0.0278731;-0.00682315;2.5;0.25;0.02
0.241023;0.137851;-0.0273153;-0.00671267;2.5;0.25;0.02
0.242072;0.138743;-0.0267482;-0.00612528;2.5;0.25;0.02
0.243005;0.139655;-0.0262985;-0.00516199;2.5;0.25;0.02
0.244055;0.140873;-0.0258427;-0.0036096;2.5;0.25;0.02
0.245104;0.14232;-0.0254166;-0.00169103;2.5;0.25;0.02
0.246037;0.143744;-0.0250297;0.000163283;2.5;0.25;0.02
0.247087;0.145427;-0.0245509;0.002239;2.5;0.25;0.02
0.248019;0.146966;-0.0240685;0.00392691;2.5;0.25;0.02
0.249068;0.148728;-0.0234405;0.00546095;2.5;0.25;0.02
0.250000;0.150286;-0.0227837;0.00636375;2.5;0.25;0.02
0.251050;0.152;-0.0219346;0.00679759;2.5;0.25;0.02
0.252100;0.153661;-0.0209932;0.00664838;2.5;0.25;0.02
0.253032;0.155064;-0.0200962;0.00610442;2.5;0.25;0.02
0.254080;0.156491;-0.0190551;0.0051693;2.5;0.25;0.02
0.255012;0.157582;-0.01816;0.00420082;2.5;0.25;0.02
0.256060;0.158603;-0.0172491;0.00311809;2.5;0.25;0.02
0.257109;0.159445;-0.0164683;0.00216105;2.5;0.25;0.02
0.258042;0.160078;-0.0159048;0.00147496;2.5;0.25;0.02
0.259090;0.160661;-0.0154526;0.000923214;2.5;0.25;0.02
0.260021;0.161042;-0.0152368;0.000636853;2.5;0.25;0.02
0.261068;0.161321;-0.0152167;0.000525271;2.5;0.25;0.02
0.262000;0.16146;-0.0153995;0.00057382;2.5;0.25;0.02
0.263049;0.1615;-0.0158228;0.000746326;2.5;0.25;0.02
0.264097;0.161427;-0.0164461;0.00100896;2.5;0.25;0.02
0.265029;0.161306;-0.0171289;0.00128282;2.5;0.25;0.02
0.266076;0.161148;-0.018001;0.00157189;2.5;0.25;0.02
0.267007;0.161002;-0.0188365;0.00174469;2.5;0.25;0.02
0.268055;0.160853;-0.0197982;0.00178365;2.5;0.25;0.02
0.269104;0.160735;-0.0207277;0.00163642;2.5;0.25;0.02
0.270036;0.160665;-0.021495;0.00136004;2.5;0.25;0.02
0.271084;0.160662;-0.0222618;0.000903199;2.5;0.25;0.02
0.272015;0.160752;-0.0228257;0.000381039;2.5;0.25;0.02
0.273063;0.160956;-0.023303;-0.00032083;2.5;0.25;0.02
0.274111;0.161267;-0.0236155;-0.00110209;2.5;0.25;0.02
0.275042;0.161642;-0.0237586;-0.00180786;2.5;0.25;0.02
0.276090;0.162167;-0.0237654;-0.0025786;2.5;0.25;0.02
0.277022;0.16271;-0.0236426;-0.00325453;2.5;0.25;0.02
0.278070;0.163386;-0.0233844;-0.0040128;2.5;0.25;0.02
0.279001;0.164023;-0.0230659;-0.00466081;2.5;0.25;0.02
0.280049;0.164745;-0.0226225;-0.00533732;2.5;0.25;0.02
0.281096;0.165448;-0.0221168;-0.00593477;2.5;0.25;0.02
0.282027;0.16604;-0.0216281;-0.00635296;2.5;0.25;0.02
0.283075;0.166662;-0.021034;-0.00667578;2.5;0.25;0.02
0.284006;0.167178;-0.0204857;-0.00687155;2.5;0.25;0.02
0.285054;0.16772;-0.0198774;-0.00700893;2.5;0.25;0.02
0.286102;0.168234;-0.0192769;-0.0070307;2.5;0.25;0.02
0.287033;0.168694;-0.0187478;-0.0069801;2.5;0.25;0.02
0.288081;0.169237;-0.0181819;-0.0069147;2.5;0.25;0.02
0.289012;0.169757;-0.0177103;-0.00686425;2.5;0.25;0.02
0.290060;0.170432;-0.0171979;-0.00681511;2.5;0.25;0.02
0.291108;0.171258;-0.0167193;-0.00679084;2.5;0.25;0.02
0.292039;0.172128;-0.0163476;-0.00678248;2.5;0.25;0.02
0.293088;0.173249;-0.0159868;-0.00677978;2.5;0.25;0.02
0.294020;0.174382;-0.0157138;-0.00680129;2.5;0.25;0.02
0.295068;0.175826;-0.015473;-0.0068224;2.5;0.25;0.02
0.296116;0.177423;-0.0152952;-0.00675651;2.5;0.25;0.02
0.297047;0.178927;-0.0151827;-0.00659518;2.5;0.25;0.02
0.298095;0.180668;-0.0151229;-0.00630439;2.5;0.25;0.02
0.299027;0.182237;-0.0151275;-0.00594604;2.5;0.25;0.02
0.300075;0.18401;-0.0151694;-0.00545365;2.5;0.25;0.02
0.301006;0.185561;-0.0152324;-0.00497475;2.5;0.25;0.02
0.302053;0.187236;-0.0153286;-0.00442376;2.5;0.25;0.02
0.303100;0.188825;-0.0154273;-0.00393805;2.5;0.25;0.02
0.304032;0.190169;-0.0155113;-0.00365584;2.5;0.25;0.02
0.305080;0.191586;-0.0156054;-0.00353551;2.5;0.25;0.02
0.306012;0.19276;-0.0156637;-0.00355864;2.5;0.25;0.02
0.307059;0.194018;-0.0156795;-0.00369185;2.5;0.25;0.02
0.308105;0.195261;-0.0156611;-0.00390729;2.5;0.25;0.02
0.309036;0.196391;-0.0156278;-0.00413044;2.5;0.25;0.02
0.310084;0.197727;-0.0155677;-0.00438688;2.5;0.25;0.02
0.311016;0.19901;-0.0154936;-0.00458306;2.5;0.25;0.02
0.312063;0.200596;-0.015377;-0.00469623;2.5;0.25;0.02
0.313109;0.202341;-0.0152113;-0.00464433;2.5;0.25;0.02
0.314039;0.204018;-0.0150346;-0.00444847;2.5;0.25;0.02
0.315086;0.206041;-0.0148155;-0.004063;2.5;0.25;0.02
0.316017;0.207938;-0.0145823;-0.00360972;2.5;0.25;0.02
0.317064;0.210132;-0.0142523;-0.00304269;2.5;0.25;0.02
0.318110;0.212334;-0.0138495;-0.00243239;2.5;0.25;0.02
0.319040;0.214265;-0.0134242;-0.00183918;2.5;0.25;0.02
0.320086;0.216374;-0.0128582;-0.0011676;2.5;0.25;0.02
0.321016;0.218147;-0.0122874;-0.000667963;2.5;0.25;0.02
0.322063;0.219946;-0.0115885;-0.000308417;2.5;0.25;0.02
0.323109;0.221482;-0.0108351;-0.000206273;2.5;0.25;0.02
0.324039;0.222635;-0.010131;-0.000338943;2.5;0.25;0.02
0.325086;0.223721;-0.00933121;-0.000721951;2.5;0.25;0.02
0.326016;0.224503;-0.0086402;-0.00123031;2.5;0.25;0.02
0.327062;0.225194;-0.00790921;-0.00191062;2.5;0.25;0.02
0.328109;0.22573;-0.00726264;-0.00258625;2.5;0.25;0.02
0.329040;0.226114;-0.0067883;-0.00308238;2.5;0.25;0.02
0.330086;0.226465;-0.00637716;-0.00342758;2.5;0.25;0.02
0.331018;0.226713;-0.00612305;-0.00347298;2.5;0.25;0.02
0.332064;0.226937;-0.00597141;-0.00318365;2.5;0.25;0.02
0.333111;0.227142;-0.00595906;-0.00258582;2.5;0.25;0.02
0.334043;0.227312;-0.00606076;-0.00189547;2.5;0.25;0.02
0.335090;0.227447;-0.00628694;-0.00102439;2.5;0.25;0.02
0.336022;0.227511;-0.00654766;-0.000218388;2.5;0.25;0.02
0.337069;0.227556;-0.00686369;0.000617389;2.5;0.25;0.02
0.338115;0.227551;-0.00719278;0.0012491;2.5;0.25;0.02
0.339046;0.227474;-0.00748375;0.00156469;2.5;0.25;0.02
0.340094;0.227334;-0.00778515;0.00158864;2.5;0.25;0.02
0.341025;0.227196;-0.00803087;0.00129106;2.5;0.25;0.02
0.342071;0.227024;-0.00828854;0.000620038;2.5;0.25;0.02
0.343001;0.226863;-0.00849086;-0.000222994;2.5;0.25;0.02
0.344046;0.226711;-0.00869346;-0.00135613;2.5;0.25;0.02
0.345094;0.226641;-0.00889516;-0.00253787;2.5;0.25;0.02
0.346025;0.226669;-0.00908717;-0.00350116;2.5;0.25;0.02
0.347071;0.226789;-0.00932909;-0.00441557;2.5;0.25;0.02
0.348000;0.226975;-0.00957534;-0.00505706;2.5;0.25;0.02
0.349045;0.227314;-0.00987813;-0.00555297;2.5;0.25;0.02
0.350091;0.227793;-0.0102096;-0.0057994;2.5;0.25;0.02
0.351022;0.2283;-0.0105395;-0.00583816;2.5;0.25;0.02
0.352068;0.228964;-0.0109257;-0.0057312;2.5;0.25;0.02
0.353113;0.229741;-0.0112973;-0.00555102;2.5;0.25;0.02
0.354041;0.230494;-0.0116221;-0.00542459;2.5;0.25;0.02
0.355086;0.231403;-0.0119772;-0.00540292;2.5;0.25;0.02
0.356017;0.232287;-0.012248;-0.00554015;2.5;0.25;0.02
0.357063;0.233349;-0.0124843;-0.00592884;2.5;0.25;0.02
0.358107;0.234471;-0.0126604;-0.00658486;2.5;0.25;0.02
0.359035;0.235551;-0.0127582;-0.00733065;2.5;0.25;0.02
0.360078;0.236868;-0.0127917;-0.00825618;2.5;0.25;0.02
0.361009;0.238114;-0.0127694;-0.00910842;2.5;0.25;0.02
0.362055;0.239601;-0.0127031;-0.0100284;2.5;0.25;0.02
0.363099;0.241198;-0.0125899;-0.0107843;2.5;0.25;0.02
