time [s];zmax [m];posx [m];posy [m];posz [m]
0.000000;0.11;3;0.5;0.07
0.001466;0.109995;3;0.5;0.07
0.002051;0.10999;3;0.5;0.07
0.003220;0.109976;3;0.5;0.07
0.004096;0.109961;3;0.5;0.07
0.005265;0.109927;3;0.5;0.07
0.006142;0.109886;3;0.5;0.07
0.007020;0.109828;3;0.5;0.07
0.008190;0.109726;3;0.5;0.07
0.009067;0.109637;3;0.5;0.07
0.010235;0.109512;3;0.5;0.07
0.011111;0.109422;3;0.5;0.07
0.012280;0.109312;3;0.5;0.07
0.013157;0.109236;3;0.5;0.07
0.014033;0.109159;3;0.5;0.07
0.015201;0.109047;3;0.5;0.07
0.016076;0.10895;3;0.5;0.07
0.017241;0.108803;3;0.5;0.07
0.018114;0.108683;3;0.5;0.07
0.019277;0.108517;3;0.5;0.07
0.020150;0.108394;3;0.5;0.07
0.021023;0.108274;3;0.5;0.07
0.022188;0.10812;3;0.5;0.07
0.023060;0.108007;3;0.5;0.07
0.024223;0.107859;3;0.5;0.07
0.025094;0.107748;3;0.5;0.07
0.026254;0.1076;3;0.5;0.07
0.027123;0.10749;3;0.5;0.07
0.028282;0.107343;3;0.5;0.07
0.029152;0.107232;3;0.5;0.07
0.030021;0.107119;3;0.5;0.07
0.031179;0.106964;3;0.5;0.07
0.032047;0.106844;3;0.5;0.07
0.033204;0.106683;3;0.5;0.07
0.034071;0.106562;3;0.5;0.07
0.035227;0.106405;3;0.5;0.07
0.036094;0.106289;3;0.5;0.07
0.037249;0.106137;3;0.5;0.07
0.038115;0.106022;3;0.5;0.07
0.039269;0.105864;3;0.5;0.07
0.040134;0.105741;3;0.5;0.07
0.041287;0.105566;3;0.5;0.07
0.042151;0.105428;3;0.5;0.07
0.043015;0.105284;3;0.5;0.07
0.044167;0.105084;3;0.5;0.07
0.045032;0.10493;3;0.5;0.07
0.046183;0.10472;3;0.5;0.07
0.047047;0.10456;3;0.5;0.07
0.048198;0.104344;3;0.5;0.07
0.049061;0.10418;3;0.5;0.07
0.050212;0.103956;3;0.5;0.07
0.051074;0.103783;3;0.5;0.07
0.052224;0.103543;3;0.5;0.07
0.053086;0.103356;3;0.5;0.07
0.054235;0.103094;3;0.5;0.07
0.055096;0.102891;3;0.5;0.07
0.056243;0.102611;3;0.5;0.07
0.057103;0.102396;3;0.5;0.07
0.058248;0.102107;3;0.5;0.07
0.059107;0.101888;3;0.5;0.07
0.060252;0.101594;3;0.5;0.07
0.061110;0.10137;3;0.5;0.07
0.062253;0.101069;3;0.5;0.07
0.063111;0.100839;3;0.5;0.07
0.064253;0.100525;3;0.5;0.07
0.065110;0.100286;3;0.5;0.07
0.066253;0.0999605;3;0.5;0.07
0.067109;0.0997126;3;0.5;0.07
0.068251;0.0993783;3;0.5;0.07
0.069107;0.0991255;3;0.5;0.07
0.070249;0.0987871;3;0.5;0.07
0.071105;0.098533;3;0.5;0.07
0.072247;0.0981947;3;0.5;0.07
0.073103;0.0979415;3;0.5;0.07
0.074245;0.0976047;3;0.5;0.07
0.075101;0.0973525;3;0.5;0.07
0.076243;0.0970165;3;0.5;0.07
0.077099;0.0967646;3;0.5;0.07
0.078241;0.0964285;3;0.5;0.07
0.079097;0.0961763;3;0.5;0.07
0.080238;0.0958403;3;0.5;0.07
0.081095;0.0955888;3;0.5;0.07
0.082236;0.0952549;3;0.5;0.07
0.083093;0.0950061;3;0.5;0.07
0.084236;0.0946776;3;0.5;0.07
0.085093;0.0944344;3;0.5;0.07
0.086234;0.0941141;3;0.5;0.07
0.087088;0.0938774;3;0.5;0.07
0.088223;0.0935659;3;0.5;0.07
0.089072;0.0933348;3;0.5;0.07
0.090201;0.0930293;3;0.5;0.07
0.091046;0.0928014;3;0.5;0.07
0.092170;0.0924976;3;0.5;0.07
0.093012;0.0922688;3;0.5;0.07
0.094135;0.091962;3;0.5;0.07
0.095256;0.0916543;3;0.5;0.07
0.096095;0.0914245;3;0.5;0.07
0.097213;0.091121;3;0.5;0.07
0.098051;0.0908956;3;0.5;0.07
0.099167;0.0905969;3;0.5;0.07
0.100005;0.0903724;3;0.5;0.07
0.101123;0.0900695;3;0.5;0.07
0.102242;0.0897604;3;0.5;0.07
0.103082;0.089524;3;0.5;0.07
0.104205;0.0892041;3;0.5;0.07
0.105047;0.0889623;3;0.5;0.07
0.106168;0.0886399;3;0.5;0.07
0.107007;0.0883984;3;0.5;0.07
0.108126;0.0880766;3;0.5;0.07
0.109245;0.0877538;3;0.5;0.07
0.110085;0.0875106;3;0.5;0.07
0.111206;0.0871841;3;0.5;0.07
0.112047;0.0869378;3;0.5;0.07
0.113169;0.0866079;3;0.5;0.07
0.114011;0.0863603;3;0.5;0.07
0.115136;0.0860303;3;0.5;0.07
0.116262;0.0856984;3;0.5;0.07
0.117108;0.0854462;3;0.5;0.07
0.118238;0.0851037;3;0.5;0.07
0.119087;0.0848419;3;0.5;0.07
0.120220;0.0844888;3;0.5;0.07
0.121071;0.0842235;3;0.5;0.07
0.122207;0.0838726;3;0.5;0.07
0.123060;0.0836129;3;0.5;0.07
0.124198;0.0832704;3;0.5;0.07
0.125052;0.0830148;3;0.5;0.07
0.126191;0.0826728;3;0.5;0.07
0.127046;0.0824142;3;0.5;0.07
0.128187;0.0820673;3;0.5;0.07
0.129043;0.0818063;3;0.5;0.07
0.130184;0.0814597;3;0.5;0.07
0.131039;0.0812019;3;0.5;0.07
0.132180;0.0808622;3;0.5;0.07
0.133036;0.0806116;3;0.5;0.07
0.134176;0.0802854;3;0.5;0.07
0.135032;0.080048;3;0.5;0.07
0.136172;0.0797416;3;0.5;0.07
0.137026;0.0795192;3;0.5;0.07
0.138166;0.0792316;3;0.5;0.07
0.139020;0.0790227;3;0.5;0.07
0.140156;0.0787547;3;0.5;0.07
0.141267;0.0785056;3;0.5;0.07
0.142092;0.0783309;3;0.5;0.07
0.143189;0.0781135;3;0.5;0.07
0.144018;0.0779611;3;0.5;0.07
0.145135;0.0777702;3;0.5;0.07
0.146270;0.0836774;3;0.5;0.07
0.147123;0.0834803;3;0.5;0.07
0.148262;0.0832231;3;0.5;0.07
0.149107;0.0830348;3;0.5;0.07
0.150216;0.0827897;3;0.5;0.07
0.151039;0.0826093;3;0.5;0.07
0.152132;0.0823726;3;0.5;0.07
0.153223;0.0821412;3;0.5;0.07
0.154041;0.0819716;3;0.5;0.07
0.155134;0.0817514;3;0.5;0.07
0.156230;0.0815366;3;0.5;0.07
0.157057;0.0813782;3;0.5;0.07
0.158167;0.0811692;3;0.5;0.07
0.159005;0.0810137;3;0.5;0.07
0.160130;0.0808081;3;0.5;0.07
0.161264;0.080605;3;0.5;0.07
0.162118;0.0804545;3;0.5;0.07
0.163258;0.0802566;3;0.5;0.07
0.164112;0.0801095;3;0.5;0.07
0.165250;0.0799136;3;0.5;0.07
0.166103;0.0797665;3;0.5;0.07
0.167241;0.0795701;3;0.5;0.07
0.168094;0.0794235;3;0.5;0.07
0.169232;0.0792301;3;0.5;0.07
0.170085;0.0790872;3;0.5;0.07
0.171223;0.0788995;3;0.5;0.07
0.172077;0.0787603;3;0.5;0.07
0.173215;0.0785759;3;0.5;0.07
0.174069;0.0784386;3;0.5;0.07
0.175208;0.0782581;3;0.5;0.07
0.176062;0.0781253;3;0.5;0.07
0.177201;0.0779518;3;0.5;0.07
0.178056;0.0778233;3;0.5;0.07
0.179196;0.0776525;3;0.5;0.07
0.180052;0.0775242;3;0.5;0.07
0.181191;0.0773533;3;0.5;0.07
0.182045;0.0772266;3;0.5;0.07
0.183182;0.0770624;3;0.5;0.07
0.184034;0.0769444;3;0.5;0.07
0.185163;0.0767954;3;0.5;0.07
0.186006;0.0766954;3;0.5;0.07
0.187127;0.0765593;3;0.5;0.07
0.188246;0.0764254;3;0.5;0.07
0.189085;0.0763249;3;0.5;0.07
0.190205;0.0761898;3;0.5;0.07
0.191046;0.0760881;3;0.5;0.07
0.192169;0.0759534;3;0.5;0.07
0.193013;0.0758541;3;0.5;0.07
0.194141;0.0757248;3;0.5;0.07
0.195270;0.0755993;3;0.5;0.07
0.196112;0.0755076;3;0.5;0.07
0.197228;0.0753872;3;0.5;0.07
0.198064;0.0752972;3;0.5;0.07
0.199177;0.075177;3;0.5;0.07
0.200014;0.0750867;3;0.5;0.07
0.201134;0.0749666;3;0.5;0.07
0.202262;0.0748476;3;0.5;0.07
0.203113;0.0747593;3;0.5;0.07
0.204244;0.0746431;3;0.5;0.07
0.205089;0.0745565;3;0.5;0.07
0.206212;0.0744403;3;0.5;0.07
0.207052;0.0743519;3;0.5;0.07
0.208172;0.0742323;3;0.5;0.07
0.209010;0.0741416;3;0.5;0.07
0.210128;0.0740202;3;0.5;0.07
0.211246;0.0738985;3;0.5;0.07
0.212085;0.0738067;3;0.5;0.07
0.213204;0.0736829;3;0.5;0.07
0.214042;0.0735881;3;0.5;0.07
0.215159;0.0734582;3;0.5;0.07
0.216274;0.0733238;3;0.5;0.07
0.217110;0.0732201;3;0.5;0.07
0.218225;0.0730783;3;0.5;0.07
0.219062;0.0729695;3;0.5;0.07
0.220179;0.072821;3;0.5;0.07
0.221019;0.0727065;3;0.5;0.07
0.222141;0.0725485;3;0.5;0.07
0.223265;0.0723836;3;0.5;0.07
0.224110;0.0722556;3;0.5;0.07
0.225229;0.0720811;3;0.5;0.07
0.226066;0.0719483;3;0.5;0.07
0.227181;0.0717694;3;0.5;0.07
0.228018;0.0716343;3;0.5;0.07
0.229135;0.0758634;3;0.5;0.07
0.230257;0.075738;3;0.5;0.07
0.231103;0.0756416;3;0.5;0.07
0.232235;0.0755102;3;0.5;0.07
0.233087;0.0754106;3;0.5;0.07
0.234223;0.0752781;3;0.5;0.07
0.235075;0.0751804;3;0.5;0.07
0.236212;0.0750533;3;0.5;0.07
0.237066;0.0749605;3;0.5;0.07
0.238203;0.0748394;3;0.5;0.07
0.239056;0.0747499;3;0.5;0.07
0.240193;0.0746316;3;0.5;0.07
0.241046;0.0745439;3;0.5;0.07
0.242184;0.0744291;3;0.5;0.07
0.243036;0.0743456;3;0.5;0.07
0.244163;0.0742386;3;0.5;0.07
0.245003;0.074161;3;0.5;0.07
0.246119;0.0740591;3;0.5;0.07
0.247231;0.0739565;3;0.5;0.07
0.248063;0.073878;3;0.5;0.07
0.249172;0.0737711;3;0.5;0.07
0.250003;0.0736899;3;0.5;0.07
0.251112;0.0735815;3;0.5;0.07
0.252223;0.073474;3;0.5;0.07
0.253057;0.0733941;3;0.5;0.07
0.254171;0.0732873;3;0.5;0.07
0.255009;0.0732062;3;0.5;0.07
0.256128;0.0730956;3;0.5;0.07
0.257250;0.072982;3;0.5;0.07
0.258093;0.0728955;3;0.5;0.07
0.259219;0.0727797;3;0.5;0.07
0.260065;0.0726933;3;0.5;0.07
0.261194;0.0725793;3;0.5;0.07
0.262042;0.0724942;3;0.5;0.07
0.263174;0.0723805;3;0.5;0.07
0.264025;0.0722941;3;0.5;0.07
0.265160;0.0721771;3;0.5;0.07
0.266013;0.0720881;3;0.5;0.07
0.267151;0.0719686;3;0.5;0.07
0.268006;0.071879;3;0.5;0.07
0.269148;0.0717607;3;0.5;0.07
0.270004;0.071673;3;0.5;0.07
0.271145;0.0715572;3;0.5;0.07
0.272001;0.071471;3;0.5;0.07
0.273142;0.0713566;3;0.5;0.07
0.274283;0.0712426;3;0.5;0.07
0.275138;0.0711575;3;0.5;0.07
0.276278;0.0710447;3;0.5;0.07
0.277132;0.0709607;3;0.5;0.07
0.278271;0.0708492;3;0.5;0.07
0.279125;0.0707655;3;0.5;0.07
0.280262;0.0706534;3;0.5;0.07
0.281109;0.070569;3;0.5;0.07
0.282234;0.0704556;3;0.5;0.07
0.283073;0.0703699;3;0.5;0.07
0.284188;0.0702545;3;0.5;0.07
0.285022;0.070167;3;0.5;0.07
0.286132;0.0700488;3;0.5;0.07
0.287241;0.0699285;3;0.5;0.07
0.288072;0.0698368;3;0.5;0.07
0.289182;0.0697122;3;0.5;0.07
0.290015;0.0696173;3;0.5;0.07
0.291127;0.0694888;3;0.5;0.07
0.292242;0.0693583;3;0.5;0.07
0.293081;0.0692588;3;0.5;0.07
0.294201;0.0691236;3;0.5;0.07
0.295043;0.0690203;3;0.5;0.07
0.296165;0.0688801;3;0.5;0.07
0.297007;0.0687733;3;0.5;0.07
0.298129;0.0686295;3;0.5;0.07
0.299253;0.068485;3;0.5;0.07
0.300096;0.0683767;3;0.5;0.07
0.301221;0.0682328;3;0.5;0.07
0.302066;0.0681252;3;0.5;0.07
0.303194;0.067982;3;0.5;0.07
0.304041;0.0678747;3;0.5;0.07
0.305173;0.0677319;3;0.5;0.07
0.306023;0.0676253;3;0.5;0.07
0.307154;0.0674847;3;0.5;0.07
0.308002;0.0673806;3;0.5;0.07
0.309132;0.0672439;3;0.5;0.07
0.310263;0.0671099;3;0.5;0.07
0.311111;0.0682866;3;0.5;0.07
0.312244;0.0681307;3;0.5;0.07
0.313095;0.0680153;3;0.5;0.07
0.314229;0.0678638;3;0.5;0.07
0.315079;0.0677518;3;0.5;0.07
0.316212;0.0676039;3;0.5;0.07
0.317061;0.0674942;3;0.5;0.07
0.318195;0.0673499;3;0.5;0.07
0.319046;0.0672437;3;0.5;0.07
0.320183;0.0671051;3;0.5;0.07
0.321037;0.0670035;3;0.5;0.07
0.322177;0.0668708;3;0.5;0.07
0.323031;0.0667726;3;0.5;0.07
0.324170;0.0666423;3;0.5;0.07
0.325024;0.0665447;3;0.5;0.07
0.326158;0.0664151;3;0.5;0.07
0.327005;0.0663189;3;0.5;0.07
0.328128;0.0661924;3;0.5;0.07
0.329247;0.066068;3;0.5;0.07
0.330082;0.0659757;3;0.5;0.07
0.331194;0.0658528;3;0.5;0.07
0.332025;0.0657602;3;0.5;0.07
0.333132;0.0656353;3;0.5;0.07
0.334237;0.0655087;3;0.5;0.07
0.335064;0.0654129;3;0.5;0.07
0.336165;0.065285;3;0.5;0.07
0.337262;0.0651572;3;0.5;0.07
0.338083;0.0650616;3;0.5;0.07
0.339175;0.064934;3;0.5;0.07
0.340265;0.0648061;3;0.5;0.07
0.341081;0.0647096;3;0.5;0.07
0.342169;0.0645808;3;0.5;0.07
0.343256;0.0644527;3;0.5;0.07
0.344070;0.0643577;3;0.5;0.07
0.345153;0.0642329;3;0.5;0.07
0.346235;0.0641103;3;0.5;0.07
0.347047;0.0640194;3;0.5;0.07
0.348129;0.0638992;3;0.5;0.07
0.349214;0.0637797;3;0.5;0.07
0.350030;0.0636906;3;0.5;0.07
0.351122;0.0635731;3;0.5;0.07
0.352220;0.0634581;3;0.5;0.07
0.353047;0.0633741;3;0.5;0.07
0.354155;0.0632654;3;0.5;0.07
0.355270;0.0631604;3;0.5;0.07
0.356110;0.0630837;3;0.5;0.07
0.357234;0.0629835;3;0.5;0.07
0.358079;0.0629099;3;0.5;0.07
0.359207;0.0628137;3;0.5;0.07
0.360054;0.0627433;3;0.5;0.07
0.361186;0.0626521;3;0.5;0.07
0.362035;0.062586;3;0.5;0.07
0.363170;0.0625004;3;0.5;0.07
0.364023;0.0624378;3;0.5;0.07
0.365161;0.0623556;3;0.5;0.07
0.366014;0.0622945;3;0.5;0.07
0.367152;0.0622133;3;0.5;0.07
0.368005;0.0621526;3;0.5;0.07
0.369144;0.0620723;3;0.5;0.07
0.370285;0.0619932;3;0.5;0.07
0.371138;0.0619348;3;0.5;0.07
0.372271;0.0634146;3;0.5;0.07
0.373120;0.0633645;3;0.5;0.07
0.374249;0.0712019;3;0.5;0.07
0.375096;0.0711561;3;0.5;0.07
0.376225;0.0710925;3;0.5;0.07
0.377072;0.0710432;3;0.5;0.07
0.378204;0.0709765;3;0.5;0.07
0.379053;0.0709258;3;0.5;0.07
0.380186;0.0708574;3;0.5;0.07
0.381036;0.0708051;3;0.5;0.07
0.382170;0.0707333;3;0.5;0.07
0.383021;0.0706777;3;0.5;0.07
0.384157;0.0706015;3;0.5;0.07
0.385011;0.0705433;3;0.5;0.07
0.386150;0.0704653;3;0.5;0.07
0.387006;0.0704067;3;0.5;0.07
0.388150;0.0703287;3;0.5;0.07
0.389007;0.0702699;3;0.5;0.07
0.390149;0.0701907;3;0.5;0.07
0.391003;0.0701305;3;0.5;0.07
0.392140;0.070049;3;0.5;0.07
0.393274;0.069967;3;0.5;0.07
0.394124;0.0699055;3;0.5;0.07
0.395257;0.0698235;3;0.5;0.07
0.396107;0.069762;3;0.5;0.07
0.397242;0.0696795;3;0.5;0.07
0.398095;0.069617;3;0.5;0.07
0.399235;0.0695327;3;0.5;0.07
0.400085;0.0694692;3;0.5;0.07
0.401205;0.0693853;3;0.5;0.07
0.402039;0.0693228;3;0.5;0.07
0.403151;0.0692394;3;0.5;0.07
0.404267;0.0691552;3;0.5;0.07
0.405103;0.0690916;3;0.5;0.07
0.406206;0.0690065;3;0.5;0.07
0.407027;0.0689425;3;0.5;0.07
0.408113;0.0688571;3;0.5;0.07
0.409194;0.0687716;3;0.5;0.07
0.410006;0.0687073;3;0.5;0.07
0.411092;0.0686208;3;0.5;0.07
0.412186;0.0685329;3;0.5;0.07
0.413014;0.0684655;3;0.5;0.07
0.414126;0.0683736;3;0.5;0.07
0.415237;0.0682807;3;0.5;0.07
0.416070;0.0682106;3;0.5;0.07
0.417179;0.0681171;3;0.5;0.07
0.418012;0.0680471;3;0.5;0.07
0.419123;0.0679535;3;0.5;0.07
0.420234;0.0678592;3;0.5;0.07
0.421068;0.0677876;3;0.5;0.07
0.422178;0.067691;3;0.5;0.07
0.423008;0.0676177;3;0.5;0.07
0.424111;0.0675195;3;0.5;0.07
0.425211;0.0674205;3;0.5;0.07
0.426037;0.0673456;3;0.5;0.07
0.427141;0.0672444;3;0.5;0.07
0.428249;0.0671413;3;0.5;0.07
0.429081;0.0670626;3;0.5;0.07
0.430190;0.0669558;3;0.5;0.07
0.431024;0.0668742;3;0.5;0.07
0.432139;0.0667633;3;0.5;0.07
0.433259;0.0666498;3;0.5;0.07
0.434099;0.0665632;3;0.5;0.07
0.435218;0.0664458;3;0.5;0.07
0.436058;0.066356;3;0.5;0.07
0.437178;0.066234;3;0.5;0.07
0.438020;0.0661407;3;0.5;0.07
0.439145;0.0660139;3;0.5;0.07
0.440272;0.065885;3;0.5;0.07
0.441113;0.0657873;3;0.5;0.07
0.442230;0.0656562;3;0.5;0.07
0.443064;0.0655573;3;0.5;0.07
0.444173;0.0654246;3;0.5;0.07
0.445004;0.0653244;3;0.5;0.07
0.446113;0.0651901;3;0.5;0.07
0.447225;0.0650549;3;0.5;0.07
0.448063;0.0649528;3;0.5;0.07
0.449183;0.0648162;3;0.5;0.07
0.450021;0.0647139;3;0.5;0.07
0.451137;0.0645773;3;0.5;0.07
0.452252;0.0644404;3;0.5;0.07
0.453090;0.0643374;3;0.5;0.07
0.454209;0.0641997;3;0.5;0.07
0.455051;0.0640963;3;0.5;0.07
0.456173;0.0639589;3;0.5;0.07
0.457014;0.0638559;3;0.5;0.07
0.458138;0.0637181;3;0.5;0.07
0.459266;0.0635788;3;0.5;0.07
0.460117;0.0634728;3;0.5;0.07
0.461253;0.0633294;3;0.5;0.07
0.462104;0.0632206;3;0.5;0.07
0.463239;0.0630738;3;0.5;0.07
0.464091;0.0629623;3;0.5;0.07
0.465223;0.0628123;3;0.5;0.07
0.466066;0.0626989;3;0.5;0.07
0.467186;0.0625463;3;0.5;0.07
0.468023;0.0624307;3;0.5;0.07
0.469136;0.0622753;3;0.5;0.07
0.470248;0.0621804;3;0.5;0.07
0.471081;0.0621247;3;0.5;0.07
0.472193;0.0620506;3;0.5;0.07
0.473028;0.0619946;3;0.5;0.07
0.474145;0.0619193;3;0.5;0.07
0.475266;0.0618429;3;0.5;0.07
0.476109;0.0617849;3;0.5;0.07
0.477238;0.0617069;3;0.5;0.07
0.478082;0.0616485;3;0.5;0.07
0.479201;0.0615715;3;0.5;0.07
0.480034;0.0615146;3;0.5;0.07
0.481138;0.0614398;3;0.5;0.07
0.482236;0.0613663;3;0.5;0.07
0.483058;0.0613121;3;0.5;0.07
0.484153;0.0612416;3;0.5;0.07
0.485249;0.0611735;3;0.5;0.07
0.486072;0.0611244;3;0.5;0.07
0.487173;0.061062;3;0.5;0.07
0.488003;0.0610175;3;0.5;0.07
0.489114;0.060961;3;0.5;0.07
0.490233;0.0609068;3;0.5;0.07
0.491076;0.0608673;3;0.5;0.07
0.492202;0.0608161;3;0.5;0.07
0.493047;0.0607808;3;0.5;0.07
0.494175;0.0607358;3;0.5;0.07
0.495022;0.0607039;3;0.5;0.07
0.496146;0.060664;3;0.5;0.07
0.497265;0.0606269;3;0.5;0.07
0.498102;0.0606003;3;0.5;0.07
0.499218;0.0605656;3;0.5;0.07
0.500055;0.0605398;3;0.5;0.07
0.501172;0.0605052;3;0.5;0.07
0.502009;0.0604791;3;0.5;0.07
0.503121;0.0604439;3;0.5;0.07
0.504230;0.060408;3;0.5;0.07
0.505062;0.0603805;3;0.5;0.07
0.506172;0.0603429;3;0.5;0.07
0.507006;0.0603143;3;0.5;0.07
0.508121;0.0602762;3;0.5;0.07
0.509241;0.0602389;3;0.5;0.07
0.510085;0.0602116;3;0.5;0.07
0.511213;0.0601763;3;0.5;0.07
0.512059;0.0601504;3;0.5;0.07
0.513183;0.0601163;3;0.5;0.07
0.514024;0.0600911;3;0.5;0.07
0.515144;0.0600583;3;0.5;0.07
0.516263;0.0600273;3;0.5;0.07
0.517103;0.0600058;3;0.5;0.07
0.518224;0.0599794;3;0.5;0.07
0.519067;0.0646532;3;0.5;0.07
0.520193;0.0645551;3;0.5;0.07
0.521040;0.0644803;3;0.5;0.07
0.522173;0.0643784;3;0.5;0.07
0.523025;0.0643005;3;0.5;0.07
0.524166;0.0641947;3;0.5;0.07
0.525022;0.0641147;3;0.5;0.07
0.526165;0.0640075;3;0.5;0.07
0.527017;0.0639272;3;0.5;0.07
0.528141;0.063821;3;0.5;0.07
0.529253;0.0637155;3;0.5;0.07
0.530082;0.0636366;3;0.5;0.07
0.531185;0.0635317;3;0.5;0.07
0.532012;0.0634535;3;0.5;0.07
0.533115;0.0633496;3;0.5;0.07
0.534221;0.0632458;3;0.5;0.07
0.535053;0.0631676;3;0.5;0.07
0.536165;0.0630627;3;0.5;0.07
0.537001;0.0629833;3;0.5;0.07
0.538120;0.062877;3;0.5;0.07
0.539241;0.0627707;3;0.5;0.07
0.540085;0.0626913;3;0.5;0.07
0.541211;0.0625859;3;0.5;0.07
0.542057;0.0625071;3;0.5;0.07
0.543187;0.0624021;3;0.5;0.07
0.544035;0.0623232;3;0.5;0.07
0.545168;0.0622177;3;0.5;0.07
0.546018;0.0621383;3;0.5;0.07
0.547150;0.0620327;3;0.5;0.07
0.548280;0.0619271;3;0.5;0.07
0.549127;0.0618482;3;0.5;0.07
0.550257;0.0617432;3;0.5;0.07
0.551105;0.0616647;3;0.5;0.07
0.552237;0.0615603;3;0.5;0.07
0.553089;0.0614821;3;0.5;0.07
0.554227;0.061378;3;0.5;0.07
0.555080;0.0613002;3;0.5;0.07
0.556212;0.0611975;3;0.5;0.07
0.557059;0.0611214;3;0.5;0.07
0.558185;0.0610211;3;0.5;0.07
0.559028;0.0609469;3;0.5;0.07
0.560154;0.0608488;3;0.5;0.07
0.561281;0.0607514;3;0.5;0.07
0.562128;0.0606785;3;0.5;0.07
0.563258;0.0605821;3;0.5;0.07
0.564105;0.0605105;3;0.5;0.07
0.565235;0.0604167;3;0.5;0.07
0.566082;0.0603476;3;0.5;0.07
0.567212;0.0602573;3;0.5;0.07
0.568058;0.0601907;3;0.5;0.07
0.569187;0.060103;3;0.5;0.07
0.570033;0.0600378;3;0.5;0.07
0.571160;0.0599517;3;0.5;0.07
0.572006;0.0598878;3;0.5;0.07
0.573135;0.0598034;3;0.5;0.07
0.574264;0.0597199;3;0.5;0.07
0.575111;0.0596578;3;0.5;0.07
0.576243;0.0595755;3;0.5;0.07
0.577092;0.0595141;3;0.5;0.07
0.578225;0.0594327;3;0.5;0.07
0.579074;0.0593722;3;0.5;0.07
0.580208;0.0592921;3;0.5;0.07
0.581058;0.0592323;3;0.5;0.07
0.582191;0.0591526;3;0.5;0.07
0.583040;0.0590927;3;0.5;0.07
0.584171;0.0590127;3;0.5;0.07
0.585018;0.0589528;3;0.5;0.07
0.586145;0.0588735;3;0.5;0.07
0.587269;0.0587953;3;0.5;0.07
0.588111;0.0643387;3;0.5;0.07
0.589233;0.0642376;3;0.5;0.07
0.590074;0.0641623;3;0.5;0.07
0.591198;0.0640622;3;0.5;0.07
0.592042;0.0639875;3;0.5;0.07
0.593170;0.0638881;3;0.5;0.07
0.594020;0.0638139;3;0.5;0.07
0.595156;0.0637153;3;0.5;0.07
0.596012;0.0636417;3;0.5;0.07
0.597154;0.063544;3;0.5;0.07
0.598010;0.0634712;3;0.5;0.07
0.599151;0.0633745;3;0.5;0.07
0.600006;0.0633021;3;0.5;0.07
0.601147;0.0632057;3;0.5;0.07
0.602003;0.0631335;3;0.5;0.07
0.603144;0.0630373;3;0.5;0.07
0.604285;0.0629409;3;0.5;0.07
0.605140;0.0628683;3;0.5;0.07
0.606281;0.0627708;3;0.5;0.07
0.607135;0.062697;3;0.5;0.07
0.608271;0.0625976;3;0.5;0.07
0.609122;0.0625224;3;0.5;0.07
0.610255;0.0624212;3;0.5;0.07
0.611104;0.0623446;3;0.5;0.07
0.612236;0.062241;3;0.5;0.07
0.613085;0.0621621;3;0.5;0.07
0.614219;0.0620548;3;0.5;0.07
0.615071;0.0619726;3;0.5;0.07
0.616209;0.0618608;3;0.5;0.07
0.617063;0.0617757;3;0.5;0.07
0.618203;0.0616606;3;0.5;0.07
0.619057;0.0615734;3;0.5;0.07
0.620195;0.0614554;3;0.5;0.07
0.621048;0.0613656;3;0.5;0.07
0.622186;0.0612438;3;0.5;0.07
0.623040;0.0611509;3;0.5;0.07
0.624179;0.0610255;3;0.5;0.07
0.625034;0.0609305;3;0.5;0.07
0.626172;0.0608034;3;0.5;0.07
0.627026;0.0607079;3;0.5;0.07
0.628162;0.0605801;3;0.5;0.07
0.629015;0.0604839;3;0.5;0.07
0.630153;0.0603549;3;0.5;0.07
0.631007;0.0602577;3;0.5;0.07
0.632147;0.0601278;3;0.5;0.07
0.633003;0.0600304;3;0.5;0.07
0.634145;0.0599009;3;0.5;0.07
0.635000;0.0598092;3;0.5;0.07
0.636141;0.0596887;3;0.5;0.07
0.637281;0.0595687;3;0.5;0.07
0.638137;0.059479;3;0.5;0.07
0.639277;0.0593601;3;0.5;0.07
0.640133;0.0592714;3;0.5;0.07
0.641274;0.0591539;3;0.5;0.07
0.642130;0.0590664;3;0.5;0.07
0.643272;0.0589503;3;0.5;0.07
0.644128;0.0588636;3;0.5;0.07
0.645269;0.0587485;3;0.5;0.07
0.646125;0.0586628;3;0.5;0.07
0.647266;0.0585494;3;0.5;0.07
0.648121;0.0584653;3;0.5;0.07
0.649261;0.0583547;3;0.5;0.07
0.650117;0.0582728;3;0.5;0.07
0.651258;0.0581652;3;0.5;0.07
0.652114;0.0580855;3;0.5;0.07
0.653255;0.0621808;3;0.5;0.07
0.654110;0.0621514;3;0.5;0.07
0.655251;0.0621135;3;0.5;0.07
0.656107;0.0620862;3;0.5;0.07
0.657248;0.0620508;3;0.5;0.07
0.658103;0.0620248;3;0.5;0.07
0.659243;0.0619902;3;0.5;0.07
0.660098;0.0619643;3;0.5;0.07
0.661238;0.0619297;3;0.5;0.07
0.662093;0.0619037;3;0.5;0.07
0.663233;0.061869;3;0.5;0.07
0.664088;0.0618428;3;0.5;0.07
0.665228;0.0618072;3;0.5;0.07
0.666079;0.0617799;3;0.5;0.07
0.667211;0.0617423;3;0.5;0.07
0.668057;0.0617131;3;0.5;0.07
