time [s];zmax [m];posx [m];posy [m];posz [m]
0.000000;0.21;3;0.5;0.3
0.001173;0.209997;3;0.5;0.3
0.002147;0.20999;3;0.5;0.3
0.003121;0.20998;3;0.5;0.3
0.004096;0.209964;3;0.5;0.3
0.005071;0.209938;3;0.5;0.3
0.006046;0.209898;3;0.5;0.3
0.007019;0.209842;3;0.5;0.3
0.008187;0.209753;3;0.5;0.3
0.009163;0.20966;3;0.5;0.3
0.010138;0.209554;3;0.5;0.3
0.011113;0.209441;3;0.5;0.3
0.012086;0.20933;3;0.5;0.3
0.013059;0.209223;3;0.5;0.3
0.014032;0.209118;3;0.5;0.3
0.015006;0.209009;3;0.5;0.3
0.016174;0.208864;3;0.5;0.3
0.017145;0.208729;3;0.5;0.3
0.018116;0.208586;3;0.5;0.3
0.019087;0.20844;3;0.5;0.3
0.020059;0.208292;3;0.5;0.3
0.021031;0.20814;3;0.5;0.3
0.022001;0.207981;3;0.5;0.3
0.023165;0.207778;3;0.5;0.3
0.024134;0.207599;3;0.5;0.3
0.025104;0.207413;3;0.5;0.3
0.026074;0.207224;3;0.5;0.3
0.027043;0.207033;3;0.5;0.3
0.028010;0.20684;3;0.5;0.3
0.029172;0.206604;3;0.5;0.3
0.030140;-3.40282e+38;3;0.5;0.3
0.031107;-3.40282e+38;3;0.5;0.3
0.032075;-3.40282e+38;3;0.5;0.3
0.033042;-3.40282e+38;3;0.5;0.3
0.034009;-3.40282e+38;3;0.5;0.3
0.035169;-3.40282e+38;3;0.5;0.3
0.036135;-3.40282e+38;3;0.5;0.3
0.037100;-3.40282e+38;3;0.5;0.3
0.038065;-3.40282e+38;3;0.5;0.3
0.039030;-3.40282e+38;3;0.5;0.3
0.040188;-3.40282e+38;3;0.5;0.3
0.041152;-3.40282e+38;3;0.5;0.3
0.042116;-3.40282e+38;3;0.5;0.3
0.043080;-3.40282e+38;3;0.5;0.3
0.044043;-3.40282e+38;3;0.5;0.3
0.045006;-3.40282e+38;3;0.5;0.3
0.046161;-3.40282e+38;3;0.5;0.3
0.047123;-3.40282e+38;3;0.5;0.3
0.048084;-3.40282e+38;3;0.5;0.3
0.049045;-3.40282e+38;3;0.5;0.3
0.050006;-3.40282e+38;3;0.5;0.3
0.051158;-3.40282e+38;3;0.5;0.3
0.052117;-3.40282e+38;3;0.5;0.3
0.053076;-3.40282e+38;3;0.5;0.3
0.054035;-3.40282e+38;3;0.5;0.3
0.055185;-3.40282e+38;3;0.5;0.3
0.056143;-3.40282e+38;3;0.5;0.3
0.057101;-3.40282e+38;3;0.5;0.3
0.058058;-3.40282e+38;3;0.5;0.3
0.059015;-3.40282e+38;3;0.5;0.3
0.060164;-3.40282e+38;3;0.5;0.3
0.061121;-3.40282e+38;3;0.5;0.3
0.062078;-3.40282e+38;3;0.5;0.3
0.063035;-3.40282e+38;3;0.5;0.3
0.064184;-3.40282e+38;3;0.5;0.3
0.065142;-3.40282e+38;3;0.5;0.3
0.066100;-3.40282e+38;3;0.5;0.3
0.067057;-3.40282e+38;3;0.5;0.3
0.068014;-3.40282e+38;3;0.5;0.3
0.069162;-3.40282e+38;3;0.5;0.3
0.070119;-3.40282e+38;3;0.5;0.3
0.071075;-3.40282e+38;3;0.5;0.3
0.072032;-3.40282e+38;3;0.5;0.3
0.073179;-3.40282e+38;3;0.5;0.3
0.074136;-3.40282e+38;3;0.5;0.3
0.075092;-3.40282e+38;3;0.5;0.3
0.076048;-3.40282e+38;3;0.5;0.3
0.077006;-3.40282e+38;3;0.5;0.3
0.078157;-3.40282e+38;3;0.5;0.3
0.079116;-3.40282e+38;3;0.5;0.3
0.080075;-3.40282e+38;3;0.5;0.3
0.081033;-3.40282e+38;3;0.5;0.3
0.082183;-3.40282e+38;3;0.5;0.3
0.083141;-3.40282e+38;3;0.5;0.3
0.084096;-3.40282e+38;3;0.5;0.3
0.085050;-3.40282e+38;3;0.5;0.3
0.086002;-3.40282e+38;3;0.5;0.3
0.087141;-3.40282e+38;3;0.5;0.3
0.088088;-3.40282e+38;3;0.5;0.3
0.089033;-3.40282e+38;3;0.5;0.3
0.090166;-3.40282e+38;3;0.5;0.3
0.091110;-3.40282e+38;3;0.5;0.3
0.092053;-3.40282e+38;3;0.5;0.3
0.093185;-3.40282e+38;3;0.5;0.3
0.094129;-3.40282e+38;3;0.5;0.3
0.095073;-3.40282e+38;3;0.5;0.3
0.096019;-3.40282e+38;3;0.5;0.3
0.097155;-3.40282e+38;3;0.5;0.3
0.098102;-3.40282e+38;3;0.5;0.3
0.099051;-3.40282e+38;3;0.5;0.3
0.100001;-3.40282e+38;3;0.5;0.3
0.101140;-3.40282e+38;3;0.5;0.3
0.102089;-3.40282e+38;3;0.5;0.3
0.103037;-3.40282e+38;3;0.5;0.3
0.104174;-3.40282e+38;3;0.5;0.3
0.105121;-3.40282e+38;3;0.5;0.3
0.106070;-3.40282e+38;3;0.5;0.3
0.107019;-3.40282e+38;3;0.5;0.3
0.108157;-3.40282e+38;3;0.5;0.3
0.109104;-3.40282e+38;3;0.5;0.3
0.110050;-3.40282e+38;3;0.5;0.3
0.111184;-3.40282e+38;3;0.5;0.3
0.112128;-3.40282e+38;3;0.5;0.3
0.113072;-3.40282e+38;3;0.5;0.3
0.114016;-3.40282e+38;3;0.5;0.3
0.115149;-3.40282e+38;3;0.5;0.3
0.116094;-3.40282e+38;3;0.5;0.3
0.117040;-3.40282e+38;3;0.5;0.3
0.118176;-3.40282e+38;3;0.5;0.3
0.119124;-3.40282e+38;3;0.5;0.3
0.120073;-3.40282e+38;3;0.5;0.3
0.121022;-3.40282e+38;3;0.5;0.3
0.122162;-3.40282e+38;3;0.5;0.3
0.123109;-3.40282e+38;3;0.5;0.3
0.124055;-3.40282e+38;3;0.5;0.3
0.125002;-3.40282e+38;3;0.5;0.3
0.126140;-3.40282e+38;3;0.5;0.3
0.127086;-3.40282e+38;3;0.5;0.3
0.128034;-3.40282e+38;3;0.5;0.3
0.129170;-3.40282e+38;3;0.5;0.3
0.130111;-3.40282e+38;3;0.5;0.3
0.131044;-3.40282e+38;3;0.5;0.3
0.132157;-3.40282e+38;3;0.5;0.3
0.133082;-3.40282e+38;3;0.5;0.3
0.134005;-3.40282e+38;3;0.5;0.3
0.135108;-3.40282e+38;3;0.5;0.3
0.136027;-3.40282e+38;3;0.5;0.3
0.137120;-3.40282e+38;3;0.5;0.3
0.138029;-3.40282e+38;3;0.5;0.3
0.139126;-3.40282e+38;3;0.5;0.3
0.140052;-3.40282e+38;3;0.5;0.3
0.141171;-3.40282e+38;3;0.5;0.3
0.142099;-3.40282e+38;3;0.5;0.3
0.143025;-3.40282e+38;3;0.5;0.3
0.144138;-3.40282e+38;3;0.5;0.3
0.145071;-3.40282e+38;3;0.5;0.3
0.146009;-3.40282e+38;3;0.5;0.3
0.147146;-3.40282e+38;3;0.5;0.3
0.148098;-3.40282e+38;3;0.5;0.3
0.149049;-3.40282e+38;3;0.5;0.3
0.150190;-3.40282e+38;3;0.5;0.3
0.151136;-3.40282e+38;3;0.5;0.3
0.152077;-3.40282e+38;3;0.5;0.3
0.153019;-3.40282e+38;3;0.5;0.3
0.154155;-3.40282e+38;3;0.5;0.3
0.155103;-3.40282e+38;3;0.5;0.3
0.156049;-3.40282e+38;3;0.5;0.3
0.157176;-3.40282e+38;3;0.5;0.3
0.158111;-3.40282e+38;3;0.5;0.3
0.159047;-3.40282e+38;3;0.5;0.3
0.160178;-3.40282e+38;3;0.5;0.3
0.161128;-3.40282e+38;3;0.5;0.3
0.162079;-3.40282e+38;3;0.5;0.3
0.163029;-3.40282e+38;3;0.5;0.3
0.164169;-3.40282e+38;3;0.5;0.3
0.165120;-3.40282e+38;3;0.5;0.3
0.166070;-3.40282e+38;3;0.5;0.3
0.167021;-3.40282e+38;3;0.5;0.3
0.168162;-3.40282e+38;3;0.5;0.3
0.169115;-3.40282e+38;3;0.5;0.3
0.170067;-3.40282e+38;3;0.5;0.3
0.171020;-3.40282e+38;3;0.5;0.3
0.172163;-3.40282e+38;3;0.5;0.3
0.173114;-3.40282e+38;3;0.5;0.3
0.174065;-3.40282e+38;3;0.5;0.3
0.175016;-3.40282e+38;3;0.5;0.3
0.176158;-3.40282e+38;3;0.5;0.3
0.177109;-3.40282e+38;3;0.5;0.3
0.178060;-3.40282e+38;3;0.5;0.3
0.179009;-3.40282e+38;3;0.5;0.3
0.180141;-3.40282e+38;3;0.5;0.3
0.181079;-3.40282e+38;3;0.5;0.3
0.182012;-3.40282e+38;3;0.5;0.3
0.183127;-3.40282e+38;3;0.5;0.3
0.184054;-3.40282e+38;3;0.5;0.3
0.185166;-3.40282e+38;3;0.5;0.3
0.186094;-3.40282e+38;3;0.5;0.3
0.187023;-3.40282e+38;3;0.5;0.3
0.188142;-3.40282e+38;3;0.5;0.3
0.189078;-3.40282e+38;3;0.5;0.3
0.190018;-3.40282e+38;3;0.5;0.3
0.191149;-3.40282e+38;3;0.5;0.3
0.192096;-3.40282e+38;3;0.5;0.3
0.193043;-3.40282e+38;3;0.5;0.3
0.194174;-3.40282e+38;3;0.5;0.3
0.195113;-3.40282e+38;3;0.5;0.3
0.196050;-3.40282e+38;3;0.5;0.3
0.197173;-3.40282e+38;3;0.5;0.3
0.198110;-3.40282e+38;3;0.5;0.3
0.199047;-3.40282e+38;3;0.5;0.3
0.200174;-3.40282e+38;3;0.5;0.3
0.201115;-3.40282e+38;3;0.5;0.3
0.202057;-3.40282e+38;3;0.5;0.3
0.203001;-3.40282e+38;3;0.5;0.3
0.204136;-3.40282e+38;3;0.5;0.3
0.205084;-3.40282e+38;3;0.5;0.3
0.206031;-3.40282e+38;3;0.5;0.3
0.207169;-3.40282e+38;3;0.5;0.3
0.208118;-3.40282e+38;3;0.5;0.3
0.209067;-3.40282e+38;3;0.5;0.3
0.210014;-3.40282e+38;3;0.5;0.3
0.211140;-3.40282e+38;3;0.5;0.3
0.212074;-3.40282e+38;3;0.5;0.3
0.213012;-3.40282e+38;3;0.5;0.3
0.214137;-3.40282e+38;3;0.5;0.3
0.215069;-3.40282e+38;3;0.5;0.3
0.216006;-3.40282e+38;3;0.5;0.3
0.217142;-3.40282e+38;3;0.5;0.3
0.218092;-3.40282e+38;3;0.5;0.3
0.219041;-3.40282e+38;3;0.5;0.3
0.220181;-3.40282e+38;3;0.5;0.3
0.221132;-3.40282e+38;3;0.5;0.3
0.222082;-3.40282e+38;3;0.5;0.3
0.223031;-3.40282e+38;3;0.5;0.3
0.224167;-3.40282e+38;3;0.5;0.3
0.225113;-3.40282e+38;3;0.5;0.3
0.226056;-3.40282e+38;3;0.5;0.3
0.227180;-3.40282e+38;3;0.5;0.3
0.228114;-3.40282e+38;3;0.5;0.3
0.229050;-3.40282e+38;3;0.5;0.3
0.230181;-3.40282e+38;3;0.5;0.3
0.231128;-3.40282e+38;3;0.5;0.3
0.232074;-3.40282e+38;3;0.5;0.3
0.233014;-3.40282e+38;3;0.5;0.3
0.234137;-3.40282e+38;3;0.5;0.3
0.235069;-3.40282e+38;3;0.5;0.3
0.236000;-3.40282e+38;3;0.5;0.3
0.237118;-3.40282e+38;3;0.5;0.3
0.238050;-3.40282e+38;3;0.5;0.3
0.239172;-3.40282e+38;3;0.5;0.3
0.240108;-3.40282e+38;3;0.5;0.3
0.241046;-3.40282e+38;3;0.5;0.3
0.242175;-3.40282e+38;3;0.5;0.3
0.243118;-3.40282e+38;3;0.5;0.3
0.244064;-3.40282e+38;3;0.5;0.3
0.245012;-3.40282e+38;3;0.5;0.3
0.246151;-3.40282e+38;3;0.5;0.3
0.247100;-3.40282e+38;3;0.5;0.3
0.248049;-3.40282e+38;3;0.5;0.3
0.249189;-3.40282e+38;3;0.5;0.3
0.250139;-3.40282e+38;3;0.5;0.3
0.251089;-3.40282e+38;3;0.5;0.3
0.252039;-3.40282e+38;3;0.5;0.3
0.253177;-3.40282e+38;3;0.5;0.3
0.254126;-3.40282e+38;3;0.5;0.3
0.255074;-3.40282e+38;3;0.5;0.3
0.256023;-3.40282e+38;3;0.5;0.3
0.257161;-3.40282e+38;3;0.5;0.3
0.258111;-3.40282e+38;3;0.5;0.3
0.259060;-3.40282e+38;3;0.5;0.3
0.260009;-3.40282e+38;3;0.5;0.3
0.261148;-3.40282e+38;3;0.5;0.3
0.262096;-3.40282e+38;3;0.5;0.3
0.263044;-3.40282e+38;3;0.5;0.3
0.264179;-3.40282e+38;3;0.5;0.3
0.265123;-3.40282e+38;3;0.5;0.3
0.266067;-3.40282e+38;3;0.5;0.3
0.267010;-3.40282e+38;3;0.5;0.3
0.268143;-3.40282e+38;3;0.5;0.3
0.269087;-3.40282e+38;3;0.5;0.3
0.270033;-3.40282e+38;3;0.5;0.3
0.271168;-3.40282e+38;3;0.5;0.3
0.272115;-3.40282e+38;3;0.5;0.3
0.273063;-3.40282e+38;3;0.5;0.3
0.274011;-3.40282e+38;3;0.5;0.3
0.275150;-3.40282e+38;3;0.5;0.3
0.276098;-3.40282e+38;3;0.5;0.3
0.277046;-3.40282e+38;3;0.5;0.3
0.278184;-3.40282e+38;3;0.5;0.3
0.279132;-3.40282e+38;3;0.5;0.3
0.280081;-3.40282e+38;3;0.5;0.3
0.281030;-3.40282e+38;3;0.5;0.3
0.282168;-3.40282e+38;3;0.5;0.3
0.283117;-3.40282e+38;3;0.5;0.3
0.284065;-3.40282e+38;3;0.5;0.3
0.285013;-3.40282e+38;3;0.5;0.3
0.286150;-3.40282e+38;3;0.5;0.3
0.287096;-3.40282e+38;3;0.5;0.3
0.288040;-3.40282e+38;3;0.5;0.3
0.289172;-3.40282e+38;3;0.5;0.3
0.290113;-3.40282e+38;3;0.5;0.3
0.291055;-3.40282e+38;3;0.5;0.3
0.292184;-3.40282e+38;3;0.5;0.3
0.293125;-3.40282e+38;3;0.5;0.3
0.294067;-3.40282e+38;3;0.5;0.3
0.295010;-3.40282e+38;3;0.5;0.3
0.296144;-3.40282e+38;3;0.5;0.3
0.297090;-3.40282e+38;3;0.5;0.3
0.298037;-3.40282e+38;3;0.5;0.3
0.299176;-3.40282e+38;3;0.5;0.3
0.300125;-3.40282e+38;3;0.5;0.3
0.301074;-3.40282e+38;3;0.5;0.3
0.302024;-3.40282e+38;3;0.5;0.3
0.303163;-3.40282e+38;3;0.5;0.3
0.304112;-3.40282e+38;3;0.5;0.3
0.305060;-3.40282e+38;3;0.5;0.3
0.306008;-3.40282e+38;3;0.5;0.3
0.307144;-3.40282e+38;3;0.5;0.3
0.308091;-3.40282e+38;3;0.5;0.3
0.309037;-3.40282e+38;3;0.5;0.3
0.310172;-3.40282e+38;3;0.5;0.3
0.311118;-3.40282e+38;3;0.5;0.3
0.312064;-3.40282e+38;3;0.5;0.3
0.313010;-3.40282e+38;3;0.5;0.3
0.314144;-3.40282e+38;3;0.5;0.3
0.315088;-3.40282e+38;3;0.5;0.3
0.316033;-3.40282e+38;3;0.5;0.3
0.317166;-3.40282e+38;3;0.5;0.3
0.318111;-3.40282e+38;3;0.5;0.3
0.319057;-3.40282e+38;3;0.5;0.3
0.320003;-3.40282e+38;3;0.5;0.3
0.321141;-3.40282e+38;3;0.5;0.3
0.322089;-3.40282e+38;3;0.5;0.3
0.323036;-3.40282e+38;3;0.5;0.3
0.324174;-3.40282e+38;3;0.5;0.3
0.325123;-3.40282e+38;3;0.5;0.3
0.326072;-3.40282e+38;3;0.5;0.3
0.327020;-3.40282e+38;3;0.5;0.3
0.328151;-3.40282e+38;3;0.5;0.3
0.329090;-3.40282e+38;3;0.5;0.3
0.330028;-3.40282e+38;3;0.5;0.3
0.331153;-3.40282e+38;3;0.5;0.3
0.332092;-3.40282e+38;3;0.5;0.3
0.333034;-3.40282e+38;3;0.5;0.3
0.334169;-3.40282e+38;3;0.5;0.3
0.335114;-3.40282e+38;3;0.5;0.3
0.336059;-3.40282e+38;3;0.5;0.3
0.337003;-3.40282e+38;3;0.5;0.3
0.338130;-3.40282e+38;3;0.5;0.3
0.339066;-3.40282e+38;3;0.5;0.3
0.340002;-3.40282e+38;3;0.5;0.3
0.341129;-3.40282e+38;3;0.5;0.3
0.342071;-3.40282e+38;3;0.5;0.3
0.343014;-3.40282e+38;3;0.5;0.3
0.344145;-3.40282e+38;3;0.5;0.3
0.345087;-3.40282e+38;3;0.5;0.3
0.346030;-3.40282e+38;3;0.5;0.3
0.347164;-3.40282e+38;3;0.5;0.3
0.348112;-3.40282e+38;3;0.5;0.3
0.349060;-3.40282e+38;3;0.5;0.3
0.350009;-3.40282e+38;3;0.5;0.3
0.351147;-3.40282e+38;3;0.5;0.3
0.352096;-3.40282e+38;3;0.5;0.3
0.353045;-3.40282e+38;3;0.5;0.3
0.354182;-3.40282e+38;3;0.5;0.3
0.355126;-3.40282e+38;3;0.5;0.3
0.356068;-3.40282e+38;3;0.5;0.3
0.357010;-3.40282e+38;3;0.5;0.3
0.358144;-3.40282e+38;3;0.5;0.3
0.359091;-3.40282e+38;3;0.5;0.3
0.360038;-3.40282e+38;3;0.5;0.3
0.361170;-3.40282e+38;3;0.5;0.3
0.362113;-3.40282e+38;3;0.5;0.3
0.363055;-3.40282e+38;3;0.5;0.3
0.364182;-3.40282e+38;3;0.5;0.3
0.365119;-3.40282e+38;3;0.5;0.3
0.366055;-3.40282e+38;3;0.5;0.3
0.367179;-3.40282e+38;3;0.5;0.3
0.368116;-3.40282e+38;3;0.5;0.3
0.369056;-3.40282e+38;3;0.5;0.3
0.370186;-3.40282e+38;3;0.5;0.3
0.371131;-3.40282e+38;3;0.5;0.3
0.372079;-3.40282e+38;3;0.5;0.3
0.373026;-3.40282e+38;3;0.5;0.3
0.374162;-3.40282e+38;3;0.5;0.3
0.375109;-3.40282e+38;3;0.5;0.3
0.376055;-3.40282e+38;3;0.5;0.3
0.377002;-3.40282e+38;3;0.5;0.3
0.378137;-3.40282e+38;3;0.5;0.3
0.379084;-3.40282e+38;3;0.5;0.3
0.380033;-3.40282e+38;3;0.5;0.3
0.381169;-3.40282e+38;3;0.5;0.3
0.382113;-3.40282e+38;3;0.5;0.3
0.383056;-3.40282e+38;3;0.5;0.3
0.384000;-3.40282e+38;3;0.5;0.3
0.385135;-3.40282e+38;3;0.5;0.3
0.386084;-3.40282e+38;3;0.5;0.3
0.387030;-3.40282e+38;3;0.5;0.3
0.388160;-3.40282e+38;3;0.5;0.3
0.389101;-3.40282e+38;3;0.5;0.3
0.390042;-3.40282e+38;3;0.5;0.3
0.391172;-3.40282e+38;3;0.5;0.3
0.392115;-3.40282e+38;3;0.5;0.3
0.393059;-3.40282e+38;3;0.5;0.3
0.394004;-3.40282e+38;3;0.5;0.3
0.395139;-3.40282e+38;3;0.5;0.3
0.396086;-3.40282e+38;3;0.5;0.3
0.397030;-3.40282e+38;3;0.5;0.3
0.398160;-3.40282e+38;3;0.5;0.3
0.399099;-3.40282e+38;3;0.5;0.3
0.400038;-3.40282e+38;3;0.5;0.3
0.401166;-3.40282e+38;3;0.5;0.3
0.402106;-3.40282e+38;3;0.5;0.3
0.403049;-3.40282e+38;3;0.5;0.3
0.404183;-3.40282e+38;3;0.5;0.3
0.405130;-3.40282e+38;3;0.5;0.3
0.406080;-3.40282e+38;3;0.5;0.3
0.407029;-3.40282e+38;3;0.5;0.3
0.408167;-3.40282e+38;3;0.5;0.3
0.409116;-3.40282e+38;3;0.5;0.3
0.410065;-3.40282e+38;3;0.5;0.3
0.411013;-3.40282e+38;3;0.5;0.3
0.412153;-3.40282e+38;3;0.5;0.3
0.413102;-3.40282e+38;3;0.5;0.3
0.414051;-3.40282e+38;3;0.5;0.3
0.415000;-3.40282e+38;3;0.5;0.3
0.416139;-3.40282e+38;3;0.5;0.3
0.417088;-3.40282e+38;3;0.5;0.3
0.418037;-3.40282e+38;3;0.5;0.3
0.419173;-3.40282e+38;3;0.5;0.3
0.420120;-3.40282e+38;3;0.5;0.3
0.421067;-3.40282e+38;3;0.5;0.3
0.422014;-3.40282e+38;3;0.5;0.3
0.423150;-3.40282e+38;3;0.5;0.3
0.424099;-3.40282e+38;3;0.5;0.3
0.425049;-3.40282e+38;3;0.5;0.3
0.426189;-3.40282e+38;3;0.5;0.3
0.427138;-3.40282e+38;3;0.5;0.3
0.428088;-3.40282e+38;3;0.5;0.3
0.429037;-3.40282e+38;3;0.5;0.3
0.430177;-3.40282e+38;3;0.5;0.3
0.431126;-3.40282e+38;3;0.5;0.3
0.432075;-3.40282e+38;3;0.5;0.3
0.433025;-3.40282e+38;3;0.5;0.3
0.434166;-3.40282e+38;3;0.5;0.3
0.435116;-3.40282e+38;3;0.5;0.3
0.436066;-3.40282e+38;3;0.5;0.3
0.437016;-3.40282e+38;3;0.5;0.3
0.438156;-3.40282e+38;3;0.5;0.3
0.439106;-3.40282e+38;3;0.5;0.3
0.440057;-3.40282e+38;3;0.5;0.3
0.441006;-3.40282e+38;3;0.5;0.3
0.442146;-3.40282e+38;3;0.5;0.3
0.443095;-3.40282e+38;3;0.5;0.3
0.444045;-3.40282e+38;3;0.5;0.3
0.445186;-3.40282e+38;3;0.5;0.3
0.446136;-3.40282e+38;3;0.5;0.3
0.447087;-3.40282e+38;3;0.5;0.3
0.448037;-3.40282e+38;3;0.5;0.3
0.449177;-3.40282e+38;3;0.5;0.3
0.450128;-3.40282e+38;3;0.5;0.3
0.451077;-3.40282e+38;3;0.5;0.3
0.452027;-3.40282e+38;3;0.5;0.3
0.453166;-3.40282e+38;3;0.5;0.3
0.454116;-3.40282e+38;3;0.5;0.3
0.455066;-3.40282e+38;3;0.5;0.3
0.456017;-3.40282e+38;3;0.5;0.3
0.457156;-3.40282e+38;3;0.5;0.3
0.458106;-3.40282e+38;3;0.5;0.3
0.459055;-3.40282e+38;3;0.5;0.3
0.460004;-3.40282e+38;3;0.5;0.3
0.461144;-3.40282e+38;3;0.5;0.3
0.462093;-3.40282e+38;3;0.5;0.3
0.463043;-3.40282e+38;3;0.5;0.3
0.464184;-3.40282e+38;3;0.5;0.3
0.465134;-3.40282e+38;3;0.5;0.3
0.466085;-3.40282e+38;3;0.5;0.3
0.467035;-3.40282e+38;3;0.5;0.3
0.468175;-3.40282e+38;3;0.5;0.3
0.469126;-3.40282e+38;3;0.5;0.3
0.470077;-3.40282e+38;3;0.5;0.3
0.471023;-3.40282e+38;3;0.5;0.3
0.472151;-3.40282e+38;3;0.5;0.3
0.473087;-3.40282e+38;3;0.5;0.3
0.474022;-3.40282e+38;3;0.5;0.3
0.475145;-3.40282e+38;3;0.5;0.3
0.476081;-3.40282e+38;3;0.5;0.3
0.477019;-3.40282e+38;3;0.5;0.3
0.478147;-3.40282e+38;3;0.5;0.3
0.479090;-3.40282e+38;3;0.5;0.3
0.480036;-3.40282e+38;3;0.5;0.3
0.481163;-3.40282e+38;3;0.5;0.3
0.482095;-3.40282e+38;3;0.5;0.3
0.483024;-3.40282e+38;3;0.5;0.3
0.484136;-3.40282e+38;3;0.5;0.3
0.485063;-3.40282e+38;3;0.5;0.3
0.486177;-3.40282e+38;3;0.5;0.3
0.487107;-3.40282e+38;3;0.5;0.3
0.488039;-3.40282e+38;3;0.5;0.3
0.489160;-3.40282e+38;3;0.5;0.3
0.490098;-3.40282e+38;3;0.5;0.3
0.491038;-3.40282e+38;3;0.5;0.3
0.492171;-3.40282e+38;3;0.5;0.3
0.493117;-3.40282e+38;3;0.5;0.3
0.494065;-3.40282e+38;3;0.5;0.3
0.495015;-3.40282e+38;3;0.5;0.3
0.496155;-3.40282e+38;3;0.5;0.3
0.497105;-3.40282e+38;3;0.5;0.3
0.498052;-3.40282e+38;3;0.5;0.3
0.499187;-3.40282e+38;3;0.5;0.3
0.500133;-3.40282e+38;3;0.5;0.3
0.501079;-3.40282e+38;3;0.5;0.3
0.502026;-3.40282e+38;3;0.5;0.3
0.503163;-3.40282e+38;3;0.5;0.3
0.504113;-3.40282e+38;3;0.5;0.3
0.505063;-3.40282e+38;3;0.5;0.3
0.506013;-3.40282e+38;3;0.5;0.3
0.507152;-3.40282e+38;3;0.5;0.3
0.508103;-3.40282e+38;3;0.5;0.3
0.509053;-3.40282e+38;3;0.5;0.3
0.510003;-3.40282e+38;3;0.5;0.3
0.511143;-3.40282e+38;3;0.5;0.3
0.512093;-3.40282e+38;3;0.5;0.3
0.513043;-3.40282e+38;3;0.5;0.3
0.514182;-3.40282e+38;3;0.5;0.3
0.515132;-3.40282e+38;3;0.5;0.3
0.516081;-3.40282e+38;3;0.5;0.3
0.517031;-3.40282e+38;3;0.5;0.3
0.518170;-3.40282e+38;3;0.5;0.3
0.519119;-3.40282e+38;3;0.5;0.3
0.520068;-3.40282e+38;3;0.5;0.3
0.521018;-3.40282e+38;3;0.5;0.3
0.522157;-3.40282e+38;3;0.5;0.3
0.523106;-3.40282e+38;3;0.5;0.3
0.524054;-3.40282e+38;3;0.5;0.3
0.525003;-3.40282e+38;3;0.5;0.3
0.526141;-3.40282e+38;3;0.5;0.3
0.527090;-3.40282e+38;3;0.5;0.3
0.528041;-3.40282e+38;3;0.5;0.3
0.529181;-3.40282e+38;3;0.5;0.3
0.530131;-3.40282e+38;3;0.5;0.3
0.531081;-3.40282e+38;3;0.5;0.3
0.532032;-3.40282e+38;3;0.5;0.3
0.533172;-3.40282e+38;3;0.5;0.3
0.534123;-3.40282e+38;3;0.5;0.3
0.535073;-3.40282e+38;3;0.5;0.3
0.536024;-3.40282e+38;3;0.5;0.3
0.537164;-3.40282e+38;3;0.5;0.3
0.538115;-3.40282e+38;3;0.5;0.3
0.539065;-3.40282e+38;3;0.5;0.3
0.540015;-3.40282e+38;3;0.5;0.3
0.541156;-3.40282e+38;3;0.5;0.3
0.542107;-3.40282e+38;3;0.5;0.3
0.543058;-3.40282e+38;3;0.5;0.3
0.544009;-3.40282e+38;3;0.5;0.3
0.545151;-3.40282e+38;3;0.5;0.3
0.546101;-3.40282e+38;3;0.5;0.3
0.547052;-3.40282e+38;3;0.5;0.3
0.548003;-3.40282e+38;3;0.5;0.3
0.549144;-3.40282e+38;3;0.5;0.3
0.550095;-3.40282e+38;3;0.5;0.3
0.551046;-3.40282e+38;3;0.5;0.3
0.552187;-3.40282e+38;3;0.5;0.3
0.553138;-3.40282e+38;3;0.5;0.3
0.554089;-3.40282e+38;3;0.5;0.3
0.555040;-3.40282e+38;3;0.5;0.3
0.556181;-3.40282e+38;3;0.5;0.3
0.557132;-3.40282e+38;3;0.5;0.3
0.558083;-3.40282e+38;3;0.5;0.3
0.559035;-3.40282e+38;3;0.5;0.3
0.560177;-3.40282e+38;3;0.5;0.3
0.561128;-3.40282e+38;3;0.5;0.3
0.562079;-3.40282e+38;3;0.5;0.3
0.563030;-3.40282e+38;3;0.5;0.3
0.564171;-3.40282e+38;3;0.5;0.3
0.565122;-3.40282e+38;3;0.5;0.3
0.566073;-3.40282e+38;3;0.5;0.3
0.567023;-3.40282e+38;3;0.5;0.3
0.568164;-3.40282e+38;3;0.5;0.3
0.569116;-3.40282e+38;3;0.5;0.3
0.570068;-3.40282e+38;3;0.5;0.3
0.571019;-3.40282e+38;3;0.5;0.3
0.572160;-3.40282e+38;3;0.5;0.3
0.573110;-3.40282e+38;3;0.5;0.3
0.574060;-3.40282e+38;3;0.5;0.3
0.575010;-3.40282e+38;3;0.5;0.3
0.576149;-3.40282e+38;3;0.5;0.3
0.577100;-3.40282e+38;3;0.5;0.3
0.578050;-3.40282e+38;3;0.5;0.3
0.579002;-3.40282e+38;3;0.5;0.3
0.580143;-3.40282e+38;3;0.5;0.3
0.581093;-3.40282e+38;3;0.5;0.3
0.582044;-3.40282e+38;3;0.5;0.3
0.583185;-3.40282e+38;3;0.5;0.3
0.584136;-3.40282e+38;3;0.5;0.3
0.585087;-3.40282e+38;3;0.5;0.3
0.586038;-3.40282e+38;3;0.5;0.3
0.587179;-3.40282e+38;3;0.5;0.3
0.588131;-3.40282e+38;3;0.5;0.3
0.589082;-3.40282e+38;3;0.5;0.3
0.590034;-3.40282e+38;3;0.5;0.3
0.591175;-3.40282e+38;3;0.5;0.3
0.592126;-3.40282e+38;3;0.5;0.3
0.593077;-3.40282e+38;3;0.5;0.3
0.594028;-3.40282e+38;3;0.5;0.3
0.595169;-3.40282e+38;3;0.5;0.3
0.596121;-3.40282e+38;3;0.5;0.3
0.597073;-3.40282e+38;3;0.5;0.3
0.598024;-3.40282e+38;3;0.5;0.3
0.599166;-3.40282e+38;3;0.5;0.3
0.600117;-3.40282e+38;3;0.5;0.3
0.601067;-3.40282e+38;3;0.5;0.3
0.602018;-3.40282e+38;3;0.5;0.3
0.603159;-3.40282e+38;3;0.5;0.3
0.604110;-3.40282e+38;3;0.5;0.3
0.605061;-3.40282e+38;3;0.5;0.3
0.606011;-3.40282e+38;3;0.5;0.3
0.607150;-3.40282e+38;3;0.5;0.3
0.608099;-3.40282e+38;3;0.5;0.3
0.609047;-3.40282e+38;3;0.5;0.3
0.610185;-3.40282e+38;3;0.5;0.3
0.611133;-3.40282e+38;3;0.5;0.3
0.612081;-3.40282e+38;3;0.5;0.3
0.613029;-3.40282e+38;3;0.5;0.3
0.614168;-3.40282e+38;3;0.5;0.3
0.615117;-3.40282e+38;3;0.5;0.3
0.616067;-3.40282e+38;3;0.5;0.3
0.617018;-3.40282e+38;3;0.5;0.3
0.618158;-3.40282e+38;3;0.5;0.3
0.619107;-3.40282e+38;3;0.5;0.3
0.620057;-3.40282e+38;3;0.5;0.3
0.621006;-3.40282e+38;3;0.5;0.3
0.622145;-3.40282e+38;3;0.5;0.3
0.623095;-3.40282e+38;3;0.5;0.3
0.624045;-3.40282e+38;3;0.5;0.3
0.625186;-3.40282e+38;3;0.5;0.3
0.626137;-3.40282e+38;3;0.5;0.3
