time [s];velx [m/s];vely [m/s];velz [m/s];posx [m];posy [m];posz [m]
0.000000;0;0;0;2.5;0.25;0.02
0.001138;3.89341e-09;-1.82757e-09;-0.0455282;2.5;0.25;0.02
0.002110;4.88512e-09;-4.22029e-08;-0.0544031;2.5;0.25;0.02
0.003083;4.17274e-09;-1.63565e-06;-0.0410198;2.5;0.25;0.02
0.004057;3.64388e-09;-2.23851e-05;-0.0261351;2.5;0.25;0.02
0.005031;3.00598e-08;-0.000145041;-0.0237986;2.5;0.25;0.02
0.006002;8.82581e-08;-0.000558755;-0.0299702;2.5;0.25;0.02
0.007137;3.07981e-08;-0.00164606;-0.031442;2.5;0.25;0.02
0.008111;-8.89883e-08;-0.00290869;-0.0229075;2.5;0.25;0.02
0.009085;-1.73726e-07;-0.00378675;-0.0128466;2.5;0.25;0.02
0.010058;8.96387e-07;-0.00369139;-0.00945714;2.5;0.25;0.02
0.011030;5.10482e-06;-0.00288301;-0.0128394;2.5;0.25;0.02
0.012002;1.89744e-05;-0.00246019;-0.017111;2.5;0.25;0.02
0.013138;7.06497e-05;-0.00355513;-0.0175196;2.5;0.25;0.02
0.014109;0.000180197;-0.00527294;-0.0156629;2.5;0.25;0.02
0.015079;0.000383302;-0.00617799;-0.0162918;2.5;0.25;0.02
0.016050;0.000681633;-0.00546481;-0.021378;2.5;0.25;0.02
0.017022;0.00101026;-0.00398671;-0.0294428;2.5;0.25;0.02
0.018156;0.00125546;-0.00367498;-0.0392772;2.5;0.25;0.02
0.019126;0.00120578;-0.00550664;-0.0465269;2.5;0.25;0.02
0.020096;0.000921541;-0.00823903;-0.0514373;2.5;0.25;0.02
0.021066;0.000595911;-0.0105344;-0.051063;2.5;0.25;0.02
0.022037;0.000510668;-0.012139;-0.0418833;2.5;0.25;0.02
0.023005;0.000855093;-0.0136034;-0.0240024;2.5;0.25;0.02
0.024135;0.00175971;-0.0154848;-0.000565941;2.5;0.25;0.02
0.025104;0.00275931;-0.0168591;0.0116268;2.5;0.25;0.02
0.026073;0.00375452;-0.0178261;0.0124357;2.5;0.25;0.02
0.027041;0.00463202;-0.0186698;0.00643312;2.5;0.25;0.02
0.028009;0.00532814;-0.0196009;0.00156995;2.5;0.25;0.02
0.029139;0.00587006;-0.0203536;0.0025584;2.5;0.25;0.02
0.030106;0.00622588;-0.0200626;0.00628663;2.5;0.25;0.02
0.031074;0.00677891;-0.0187775;0.00774536;2.5;0.25;0.02
0.032041;0.00778369;-0.0169855;0.00536671;2.5;0.25;0.02
0.033007;0.00918597;-0.0152333;0.00137289;2.5;0.25;0.02
0.034135;0.0108186;-0.0133809;-0.00150052;2.5;0.25;0.02
0.035101;0.0118489;-0.0116915;-0.00176403;2.5;0.25;0.02
0.036067;0.0126431;-0.00970939;-0.00161894;2.5;0.25;0.02
0.037032;0.0136011;-0.00741119;-0.00227037;2.5;0.25;0.02
0.038158;0.0152946;-0.00439365;-0.00255772;2.5;0.25;0.02
0.039122;0.017115;-0.00155152;0.000764857;2.5;0.25;0.02
0.040086;0.0189276;0.00153038;0.0092447;2.5;0.25;0.02
0.041050;0.0205528;0.00484329;0.0212776;2.5;0.25;0.02
0.042014;0.0220293;0.0083081;0.0323404;2.5;0.25;0.02
0.043138;0.0236295;0.0122971;0.038465;2.5;0.25;0.02
0.044101;0.0247725;0.0154118;0.0370632;2.5;0.25;0.02
0.045063;0.0256052;0.0180528;0.0322118;2.5;0.25;0.02
0.046025;0.0262543;0.0201237;0.0269938;2.5;0.25;0.02
0.047147;0.0270974;0.0217501;0.0222929;2.5;0.25;0.02
0.048107;0.0279745;0.0224631;0.0194026;2.5;0.25;0.02
0.049068;0.0288299;0.0226763;0.0173549;2.5;0.25;0.02
0.050028;0.0294953;0.0226419;0.0160523;2.5;0.25;0.02
0.051147;0.030029;0.0225687;0.0146191;2.5;0.25;0.02
0.052107;0.0303735;0.0224955;0.0123359;2.5;0.25;0.02
0.053066;0.0306333;0.0222281;0.00905911;2.5;0.25;0.02
0.054025;0.0307826;0.0215856;0.00639769;2.5;0.25;0.02
0.055143;0.0308725;0.0203263;0.00657811;2.5;0.25;0.02
0.056101;0.0309531;0.0189141;0.0097568;2.5;0.25;0.02
0.057060;0.0309861;0.017304;0.0138047;2.5;0.25;0.02
0.058018;0.030816;0.0155924;0.016584;2.5;0.25;0.02
0.059136;0.0302736;0.0136018;0.0172032;2.5;0.25;0.02
0.060094;0.0296591;0.0119389;0.0159773;2.5;0.25;0.02
0.061053;0.0290747;0.0102099;0.0134309;2.5;0.25;0.02
0.062012;0.0285127;0.00825921;0.00903218;2.5;0.25;0.02
0.063131;0.0277333;0.00563823;0.000801601;2.5;0.25;0.02
0.064090;0.0269674;0.00318363;-0.00835117;2.5;0.25;0.02
0.065048;0.0262882;0.000631414;-0.0176492;2.5;0.25;0.02
0.066007;0.0258028;-0.00199847;-0.0250559;2.5;0.25;0.02
0.067124;0.0253463;-0.00511913;-0.0295839;2.5;0.25;0.02
0.068082;0.0248702;-0.00769723;-0.0299036;2.5;0.25;0.02
0.069040;0.0243104;-0.0100478;-0.0280308;2.5;0.25;0.02
0.070157;0.0237068;-0.0125388;-0.0248251;2.5;0.25;0.02
0.071115;0.0232791;-0.0146334;-0.0220615;2.5;0.25;0.02
0.072072;0.0228682;-0.0167823;-0.0192325;2.5;0.25;0.02
0.073032;0.0224626;-0.0189058;-0.01596;2.5;0.25;0.02
0.074152;0.0221303;-0.0211438;-0.0116596;2.5;0.25;0.02
0.075112;0.0220293;-0.0227678;-0.00841546;2.5;0.25;0.02
0.076072;0.0219893;-0.0240965;-0.00663904;2.5;0.25;0.02
0.077031;0.0218861;-0.0250692;-0.00692849;2.5;0.25;0.02
0.078150;0.0217576;-0.0256585;-0.00969209;2.5;0.25;0.02
0.079109;0.0218367;-0.0257525;-0.0133012;2.5;0.25;0.02
0.080067;0.0221491;-0.0256509;-0.0170271;2.5;0.25;0.02
0.081026;0.0225728;-0.0254831;-0.0199786;2.5;0.25;0.02
0.082144;0.0230732;-0.025149;-0.021623;2.5;0.25;0.02
0.083102;0.0235742;-0.0246208;-0.0211838;2.5;0.25;0.02
0.084059;0.024237;-0.023861;-0.0190771;2.5;0.25;0.02
0.085014;0.024996;-0.0229696;-0.0155448;2.5;0.25;0.02
0.086127;0.0257751;-0.0218623;-0.0101779;2.5;0.25;0.02
0.087079;0.0262735;-0.0208372;-0.00525174;2.5;0.25;0.02
0.088030;0.0267001;-0.0197012;-0.000937011;2.5;0.25;0.02
0.089138;0.0271876;-0.018246;0.00220435;2.5;0.25;0.02
0.090088;0.0275232;-0.0169125;0.0027391;2.5;0.25;0.02
0.091037;0.0277146;-0.0154707;0.00140088;2.5;0.25;0.02
0.092146;0.0278667;-0.0135695;-0.00169812;2.5;0.25;0.02
0.093096;0.0281001;-0.0117352;-0.00479344;2.5;0.25;0.02
0.094047;0.0284506;-0.00976592;-0.00772044;2.5;0.25;0.02
0.095158;0.0288668;-0.00738099;-0.0107381;2.5;0.25;0.02
0.096111;0.0291861;-0.00529255;-0.0130716;2.5;0.25;0.02
0.097065;0.0295929;-0.00316357;-0.0151204;2.5;0.25;0.02
0.098019;0.0302247;-0.000991118;-0.0165482;2.5;0.25;0.02
0.099134;0.0312545;0.00160668;-0.016786;2.5;0.25;0.02
0.100088;0.0323032;0.0038976;-0.0154117;2.5;0.25;0.02
0.101042;0.0334991;0.00621723;-0.012632;2.5;0.25;0.02
0.102152;0.0351748;0.00881773;-0.00810328;2.5;0.25;0.02
0.103101;0.0368645;0.0108175;-0.00367688;2.5;0.25;0.02
0.104048;0.0386849;0.0125192;0.000739329;2.5;0.25;0.02
0.105151;0.0408443;0.0140907;0.0053559;2.5;0.25;0.02
0.106096;0.0427199;0.0150707;0.00858209;2.5;0.25;0.02
0.107041;0.0446528;0.0156862;0.0110871;2.5;0.25;0.02
0.108143;0.0469323;0.0159077;0.0132459;2.5;0.25;0.02
0.109088;0.0488054;0.015668;0.0146341;2.5;0.25;0.02
0.110034;0.0505558;0.0150377;0.0157959;2.5;0.25;0.02
0.111139;0.0524699;0.0138096;0.0171419;2.5;0.25;0.02
0.112087;0.0539952;0.0123583;0.0184492;2.5;0.25;0.02
0.113037;0.0553294;0.0105916;0.019831;2.5;0.25;0.02
0.114146;0.0565323;0.00821276;0.0211317;2.5;0.25;0.02
0.115097;0.0572571;0.00596222;0.0215989;2.5;0.25;0.02
0.116047;0.0577596;0.00358177;0.0213711;2.5;0.25;0.02
0.117155;0.0581076;0.000766815;0.0205388;2.5;0.25;0.02
0.118104;0.0581946;-0.00155128;0.019749;2.5;0.25;0.02
0.119052;0.0580972;-0.00369039;0.0191284;2.5;0.25;0.02
0.120001;0.0578617;-0.00561883;0.0186336;2.5;0.25;0.02
0.121108;0.0574562;-0.00760884;0.0178324;2.5;0.25;0.02
0.122057;0.0569849;-0.00911169;0.016494;2.5;0.25;0.02
0.123006;0.0563876;-0.0104579;0.0141947;2.5;0.25;0.02
0.124115;0.0555829;-0.0118794;0.0101933;2.5;0.25;0.02
0.125065;0.0548641;-0.0129974;0.00592979;2.5;0.25;0.02
0.126015;0.0541291;-0.0140158;0.00141213;2.5;0.25;0.02
0.127123;0.0532215;-0.0150514;-0.00353115;2.5;0.25;0.02
0.128073;0.0524247;-0.0158082;-0.00714039;2.5;0.25;0.02
0.129024;0.0516905;-0.0164624;-0.0100599;2.5;0.25;0.02
0.130133;0.0509771;-0.017093;-0.0126147;2.5;0.25;0.02
0.131085;0.0504376;-0.0174816;-0.0141349;2.5;0.25;0.02
0.132036;0.0498723;-0.0177066;-0.0151072;2.5;0.25;0.02
0.133145;0.0491432;-0.0177955;-0.0156313;2.5;0.25;0.02
0.134096;0.0485179;-0.0177775;-0.0156081;2.5;0.25;0.02
0.135047;0.0479629;-0.0177033;-0.0152121;2.5;0.25;0.02
0.136155;0.0474281;-0.0175525;-0.0144371;2.5;0.25;0.02
0.137106;0.047028;-0.017375;-0.0136892;2.5;0.25;0.02
0.138057;0.0466187;-0.0171637;-0.013022;2.5;0.25;0.02
0.139008;0.0461384;-0.0169196;-0.0125577;2.5;0.25;0.02
0.140115;0.0454463;-0.0165717;-0.0124418;2.5;0.25;0.02
0.141064;0.0447919;-0.0162103;-0.0128607;2.5;0.25;0.02
0.142007;0.044204;-0.0158109;-0.0137814;2.5;0.25;0.02
0.143101;0.0437251;-0.015338;-0.0151978;2.5;0.25;0.02
0.144038;0.043472;-0.0149418;-0.0162663;2.5;0.25;0.02
0.145136;0.0432062;-0.0144875;-0.0168795;2.5;0.25;0.02
0.146079;0.0428964;-0.0141097;-0.0167753;2.5;0.25;0.02
0.147020;0.0425118;-0.013758;-0.0162763;2.5;0.25;0.02
0.148118;0.0420685;-0.0133871;-0.0155094;2.5;0.25;0.02
0.149065;0.0417937;-0.0130971;-0.0148445;2.5;0.25;0.02
0.150010;0.0416889;-0.0128376;-0.0142014;2.5;0.25;0.02
0.151109;0.0418186;-0.0126064;-0.0134752;2.5;0.25;0.02
0.152051;0.042102;-0.0125027;-0.0129089;2.5;0.25;0.02
0.153152;0.0424881;-0.0125097;-0.0124019;2.5;0.25;0.02
0.154100;0.0427726;-0.0126211;-0.0121638;2.5;0.25;0.02
0.155047;0.0430615;-0.0128241;-0.0121248;2.5;0.25;0.02
0.156150;0.0436252;-0.0131759;-0.0122712;2.5;0.25;0.02
0.157095;0.0444504;-0.0135624;-0.0124517;2.5;0.25;0.02
0.158038;0.0455656;-0.0140029;-0.0125501;2.5;0.25;0.02
0.159138;0.0470673;-0.0145528;-0.0123954;2.5;0.25;0.02
0.160079;0.0484464;-0.0150409;-0.0119165;2.5;0.25;0.02
0.161020;0.0499501;-0.0155338;-0.0110493;2.5;0.25;0.02
0.162111;0.0519309;-0.0160794;-0.00952025;2.5;0.25;0.02
0.163052;0.0538174;-0.016488;-0.00775701;2.5;0.25;0.02
0.164002;0.055806;-0.0168148;-0.00558784;2.5;0.25;0.02
0.165112;0.0581531;-0.0170639;-0.00265667;2.5;0.25;0.02
0.166063;0.0601683;-0.017139;4.09651e-05;2.5;0.25;0.02
0.167015;0.0621699;-0.0170527;0.00272045;2.5;0.25;0.02
0.168124;0.0644267;-0.0167149;0.00562401;2.5;0.25;0.02
0.169071;0.0662558;-0.0162271;0.0078638;2.5;0.25;0.02
0.170020;0.0679953;-0.0155764;0.00991258;2.5;0.25;0.02
0.171126;0.0698768;-0.0146362;0.0120732;2.5;0.25;0.02
0.172070;0.0712643;-0.0137033;0.0136604;2.5;0.25;0.02
0.173009;0.0723617;-0.0126966;0.014914;2.5;0.25;0.02
0.174104;0.0733213;-0.0115009;0.0159188;2.5;0.25;0.02
0.175048;0.0740169;-0.0105152;0.016429;2.5;0.25;0.02
0.176149;0.0747913;-0.00946998;0.0166906;2.5;0.25;0.02
0.177094;0.0753484;-0.00868124;0.0166867;2.5;0.25;0.02
0.178039;0.0756503;-0.00800545;0.0165325;2.5;0.25;0.02
0.179141;0.0755942;-0.00737973;0.016258;2.5;0.25;0.02
0.180086;0.0752878;-0.00699158;0.0159935;2.5;0.25;0.02
0.181034;0.0748842;-0.0067432;0.0156824;2.5;0.25;0.02
0.182139;0.0743892;-0.00663778;0.0151588;2.5;0.25;0.02
0.183086;0.0739389;-0.00671074;0.0144594;2.5;0.25;0.02
0.184034;0.0734311;-0.00692993;0.0134213;2.5;0.25;0.02
0.185140;0.0727231;-0.00734566;0.0116719;2.5;0.25;0.02
0.186087;0.0719757;-0.00781491;0.00970331;2.5;0.25;0.02
0.187032;0.0710891;-0.00837727;0.0074214;2.5;0.25;0.02
0.188132;0.069976;-0.00915209;0.00460231;2.5;0.25;0.02
0.189077;0.0691159;-0.0099133;0.00219391;2.5;0.25;0.02
0.190022;0.0684459;-0.0107434;-0.000192559;2.5;0.25;0.02
0.191119;0.0678254;-0.0117564;-0.00296277;2.5;0.25;0.02
0.192059;0.0672425;-0.0126365;-0.00523272;2.5;0.25;0.02
0.193000;0.0664992;-0.0135084;-0.0072009;2.5;0.25;0.02
0.194096;0.0655106;-0.0144926;-0.00889416;2.5;0.25;0.02
0.195030;0.0647343;-0.0152992;-0.00984887;2.5;0.25;0.02
0.196117;0.0640397;-0.0162014;-0.0106183;2.5;0.25;0.02
0.197047;0.0635811;-0.0169402;-0.0111496;2.5;0.25;0.02
0.198132;0.063053;-0.0177434;-0.0116439;2.5;0.25;0.02
0.199058;0.0625223;-0.018356;-0.0118704;2.5;0.25;0.02
0.200133;0.0618301;-0.0189687;-0.0118097;2.5;0.25;0.02
0.201053;0.0612616;-0.0194187;-0.0114828;2.5;0.25;0.02
0.202129;0.0607385;-0.0198887;-0.010893;2.5;0.25;0.02
0.203054;0.0604328;-0.0202739;-0.010358;2.5;0.25;0.02
0.204138;0.0601435;-0.0207301;-0.00987167;2.5;0.25;0.02
0.205071;0.0598196;-0.0211392;-0.00961712;2.5;0.25;0.02
0.206010;0.0593598;-0.021568;-0.00943054;2.5;0.25;0.02
0.207109;0.0587431;-0.0220891;-0.00912148;2.5;0.25;0.02
0.208056;0.0583157;-0.0225557;-0.00870634;2.5;0.25;0.02
0.209004;0.0580858;-0.0230562;-0.00821777;2.5;0.25;0.02
0.210112;0.0580064;-0.0237143;-0.00771057;2.5;0.25;0.02
0.211061;0.0579485;-0.0243556;-0.00738548;2.5;0.25;0.02
0.212010;0.0577967;-0.0250516;-0.00710387;2.5;0.25;0.02
0.213118;0.057509;-0.025888;-0.00670707;2.5;0.25;0.02
0.214068;0.0572521;-0.026596;-0.0062644;2.5;0.25;0.02
0.215018;0.0570686;-0.0272911;-0.00578074;2.5;0.25;0.02
0.216126;0.0570195;-0.0280947;-0.00532079;2.5;0.25;0.02
0.217076;0.0571423;-0.0287733;-0.00516055;2.5;0.25;0.02
0.218025;0.0573878;-0.0294167;-0.00529902;2.5;0.25;0.02
0.219133;0.0577301;-0.0300683;-0.00581775;2.5;0.25;0.02
0.220083;0.057997;-0.0304967;-0.00645602;2.5;0.25;0.02
0.221033;0.0582505;-0.0307775;-0.0071357;2.5;0.25;0.02
0.222142;0.0586414;-0.0309037;-0.00784035;2.5;0.25;0.02
0.223092;0.0591413;-0.0308298;-0.00828673;2.5;0.25;0.02
0.224042;0.0597867;-0.0305731;-0.00852699;2.5;0.25;0.02
0.225150;0.0606399;-0.030016;-0.00848135;2.5;0.25;0.02
0.226099;0.0614141;-0.0293038;-0.00814169;2.5;0.25;0.02
0.227047;0.0622458;-0.0283814;-0.00755082;2.5;0.25;0.02
0.228153;0.0633136;-0.0270674;-0.00661662;2.5;0.25;0.02
0.229102;0.0642733;-0.0257626;-0.00567807;2.5;0.25;0.02
0.230051;0.0652051;-0.0243097;-0.00467975;2.5;0.25;0.02
0.231001;0.066082;-0.0227264;-0.00368168;2.5;0.25;0.02
0.232107;0.0670874;-0.0207545;-0.00255907;2.5;0.25;0.02
0.233056;0.0679937;-0.0190108;-0.00161927;2.5;0.25;0.02
0.234004;0.0689424;-0.0172753;-0.0006631;2.5;0.25;0.02
0.235109;0.0700258;-0.0153205;0.000499223;2.5;0.25;0.02
0.236056;0.0708618;-0.0137374;0.00152013;2.5;0.25;0.02
0.237002;0.0715862;-0.0122648;0.00253341;2.5;0.25;0.02
0.238105;0.0723114;-0.0107261;0.00369111;2.5;0.25;0.02
0.239052;0.0728586;-0.00960434;0.00467353;2.5;0.25;0.02
0.240157;0.0734294;-0.00857456;0.00582888;2.5;0.25;0.02
0.241105;0.0738637;-0.00795309;0.00683617;2.5;0.25;0.02
0.242054;0.074249;-0.00757203;0.00786287;2.5;0.25;0.02
0.243002;0.074587;-0.00742254;0.00888511;2.5;0.25;0.02
0.244107;0.0749203;-0.00752447;0.00997643;2.5;0.25;0.02
0.245054;0.0751457;-0.00783483;0.0106944;2.5;0.25;0.02
0.246000;0.0753014;-0.00833488;0.0110939;2.5;0.25;0.02
0.247104;0.0753835;-0.0091282;0.0110835;2.5;0.25;0.02
0.248050;0.0753791;-0.0099567;0.0106781;2.5;0.25;0.02
0.249157;0.0753358;-0.0110603;0.0098135;2.5;0.25;0.02
0.250104;0.0753146;-0.012094;0.00881319;2.5;0.25;0.02
0.251050;0.0753284;-0.0131891;0.00764732;2.5;0.25;0.02
0.252153;0.0753588;-0.0145228;0.00617543;2.5;0.25;0.02
0.253097;0.0753464;-0.0156925;0.00489708;2.5;0.25;0.02
0.254038;0.0752655;-0.0168677;0.00365766;2.5;0.25;0.02
0.255132;0.07509;-0.0182195;0.00229856;2.5;0.25;0.02
0.256066;0.074902;-0.019338;0.00121006;2.5;0.25;0.02
0.257152;0.0746741;-0.0205727;-1.07254e-05;2.5;0.25;0.02
0.258080;0.074476;-0.02156;-0.00106247;2.5;0.25;0.02
0.259007;0.0742578;-0.0224756;-0.00213597;2.5;0.25;0.02
0.260089;0.0739394;-0.0234436;-0.00336801;2.5;0.25;0.02
0.261018;0.0735791;-0.0241786;-0.00433046;2.5;0.25;0.02
0.262105;0.0730405;-0.0249184;-0.00527354;2.5;0.25;0.02
0.263040;0.0724919;-0.0254533;-0.00592135;2.5;0.25;0.02
0.264134;0.0717912;-0.0259639;-0.00651833;2.5;0.25;0.02
0.265076;0.0711666;-0.0263007;-0.00690639;2.5;0.25;0.02
0.266021;0.0705252;-0.0265397;-0.00717151;2.5;0.25;0.02
0.267126;0.0697398;-0.0267006;-0.00730784;2.5;0.25;0.02
0.268074;0.0690231;-0.026751;-0.00726576;2.5;0.25;0.02
0.269022;0.0682702;-0.0267288;-0.00707081;2.5;0.25;0.02
0.270129;0.0673806;-0.0266053;-0.0066649;2.5;0.25;0.02
0.271077;0.0666511;-0.0264105;-0.00621798;2.5;0.25;0.02
0.272025;0.0659907;-0.0261439;-0.00575746;2.5;0.25;0.02
0.273132;0.0653371;-0.0257683;-0.00528313;2.5;0.25;0.02
0.274080;0.0648801;-0.0254059;-0.00494983;2.5;0.25;0.02
0.275029;0.0645107;-0.02501;-0.00467211;2.5;0.25;0.02
0.276135;0.0641908;-0.0245131;-0.00441838;2.5;0.25;0.02
0.277083;0.0640315;-0.0240726;-0.00428946;2.5;0.25;0.02
0.278028;0.0640046;-0.023632;-0.00427281;2.5;0.25;0.02
0.279128;0.0641594;-0.0231174;-0.00441432;2.5;0.25;0.02
0.280071;0.0644498;-0.0226693;-0.00468117;2.5;0.25;0.02
0.281015;0.0648705;-0.0222173;-0.00509009;2.5;0.25;0.02
0.282119;0.0654979;-0.0217016;-0.00574088;2.5;0.25;0.02
0.283068;0.0661255;-0.0212788;-0.00640775;2.5;0.25;0.02
0.284015;0.0668144;-0.0208668;-0.00711588;2.5;0.25;0.02
0.285120;0.0676806;-0.0203821;-0.00793828;2.5;0.25;0.02
0.286067;0.0684699;-0.0199614;-0.00862328;2.5;0.25;0.02
0.287013;0.0692924;-0.0195459;-0.00928105;2.5;0.25;0.02
0.288119;0.0702633;-0.0190753;-0.00997813;2.5;0.25;0.02
0.289066;0.0710677;-0.0186805;-0.0104679;2.5;0.25;0.02
0.290013;0.0718188;-0.018286;-0.0108243;2.5;0.25;0.02
0.291119;0.0726175;-0.0178267;-0.0110507;2.5;0.25;0.02
0.292065;0.0732424;-0.0174391;-0.0110661;2.5;0.25;0.02
0.293012;0.073821;-0.017057;-0.0108888;2.5;0.25;0.02
0.294116;0.0744395;-0.0166152;-0.0103877;2.5;0.25;0.02
0.295063;0.074918;-0.0162421;-0.00966546;2.5;0.25;0.02
0.296010;0.07535;-0.0158801;-0.00865422;2.5;0.25;0.02
0.297115;0.0758112;-0.0154751;-0.0071151;2.5;0.25;0.02
0.298062;0.0761921;-0.0151418;-0.00551754;2.5;0.25;0.02
0.299009;0.0765802;-0.0148232;-0.00371133;2.5;0.25;0.02
0.300114;0.0770654;-0.014482;-0.00141638;2.5;0.25;0.02
0.301060;0.0775302;-0.0142275;0.000637806;2.5;0.25;0.02
0.302007;0.0780602;-0.0140159;0.0026965;2.5;0.25;0.02
0.303111;0.0787759;-0.0138246;0.00500503;2.5;0.25;0.02
0.304058;0.0794687;-0.0137027;0.00683174;2.5;0.25;0.02
0.305004;0.0802207;-0.0136084;0.00847185;2.5;0.25;0.02
0.306109;0.0811628;-0.0135223;0.0101068;2.5;0.25;0.02
0.307057;0.0820277;-0.01347;0.0112263;2.5;0.25;0.02
0.308004;0.0829445;-0.0134469;0.0120383;2.5;0.25;0.02
0.309109;0.0840512;-0.0134629;0.0125483;2.5;0.25;0.02
0.310056;0.0849898;-0.0135052;0.012606;2.5;0.25;0.02
0.311003;0.0858853;-0.0135596;0.0123464;2.5;0.25;0.02
0.312108;0.0868561;-0.0136292;0.011702;2.5;0.25;0.02
0.313055;0.0876179;-0.0136947;0.0108987;2.5;0.25;0.02
0.314003;0.0883044;-0.0137656;0.0098897;2.5;0.25;0.02
0.315109;0.0889895;-0.0138472;0.00848241;2.5;0.25;0.02
0.316056;0.089465;-0.0139098;0.00711341;2.5;0.25;0.02
0.317001;0.0898347;-0.0139662;0.00563359;2.5;0.25;0.02
0.318104;0.0901288;-0.0140267;0.00382333;2.5;0.25;0.02
0.319049;0.0902552;-0.0140694;0.00225222;2.5;0.25;0.02
0.320152;0.0902535;-0.0140978;0.000465328;2.5;0.25;0.02
0.321097;0.090137;-0.0141017;-0.00096715;2.5;0.25;0.02
0.322042;0.0899351;-0.0140908;-0.00225317;2.5;0.25;0.02
0.323146;0.0896155;-0.0140631;-0.00350929;2.5;0.25;0.02
0.324093;0.0892807;-0.0140209;-0.00434174;2.5;0.25;0.02
0.325041;0.0888969;-0.0139545;-0.00493291;2.5;0.25;0.02
0.326146;0.0884024;-0.0138478;-0.0053135;2.5;0.25;0.02
0.327094;0.087957;-0.013738;-0.00538236;2.5;0.25;0.02
0.328042;0.0875117;-0.0136133;-0.00523123;2.5;0.25;0.02
0.329149;0.0870157;-0.0134453;-0.0048191;2.5;0.25;0.02
0.330097;0.0866297;-0.0132835;-0.00431377;2.5;0.25;0.02
0.331045;0.0862903;-0.0131135;-0.0037212;2.5;0.25;0.02
0.332150;0.0859549;-0.0129145;-0.00298892;2.5;0.25;0.02
0.333098;0.0857132;-0.0127458;-0.00238432;2.5;0.25;0.02
0.334045;0.085508;-0.0125802;-0.00184719;2.5;0.25;0.02
0.335150;0.0853125;-0.0124012;-0.00134694;2.5;0.25;0.02
0.336097;0.0851821;-0.0122728;-0.00104772;2.5;0.25;0.02
0.337043;0.0850826;-0.0121767;-0.000884671;2.5;0.25;0.02
0.338147;0.0849946;-0.0121097;-0.000888204;2.5;0.25;0.02
0.339094;0.0849325;-0.0120938;-0.00106912;2.5;0.25;0.02
0.340041;0.084874;-0.0121239;-0.00140888;2.5;0.25;0.02
0.341145;0.0848009;-0.0122269;-0.00197955;2.5;0.25;0.02
0.342092;0.0847277;-0.0123742;-0.00259535;2.5;0.25;0.02
0.343038;0.0846435;-0.0125719;-0.00331442;2.5;0.25;0.02
0.344142;0.0845342;-0.0128639;-0.00426722;2.5;0.25;0.02
0.345088;0.0844389;-0.0131693;-0.00515562;2.5;0.25;0.02
0.346034;0.0843547;-0.0135259;-0.00607448;2.5;0.25;0.02
0.347139;0.0842944;-0.013998;-0.00713208;2.5;0.25;0.02
0.348085;0.0842993;-0.0144397;-0.00797906;2.5;0.25;0.02
0.349032;0.0843742;-0.0149057;-0.00872812;2.5;0.25;0.02
0.350137;0.0845659;-0.0154674;-0.00942657;2.5;0.25;0.02
0.351084;0.084833;-0.0159485;-0.00983897;2.5;0.25;0.02
0.352031;0.0852134;-0.0164098;-0.0100588;2.5;0.25;0.02
0.353136;0.0858309;-0.0168994;-0.01006;2.5;0.25;0.02
0.354083;0.0865291;-0.0172609;-0.00983655;2.5;0.25;0.02
0.355030;0.0873868;-0.0175536;-0.00940521;2.5;0.25;0.02
0.356135;0.0885779;-0.0177857;-0.0086524;2.5;0.25;0.02
0.357081;0.0897472;-0.0178702;-0.00782312;2.5;0.25;0.02
0.358028;0.0910379;-0.0178352;-0.00686414;2.5;0.25;0.02
0.359135;0.0926715;-0.0176343;-0.00563424;2.5;0.25;0.02
0.360084;0.0941459;-0.0173247;-0.00452938;2.5;0.25;0.02
